-0.035643
-0.033697
-0.032392
-0.054223
-0.064909
-0.068797
-0.059174
-0.064942
-0.081134
-0.088533
-0.086024
-0.081448
-0.078485
-0.064389
-0.068328
-0.067078
-0.06055
-0.041494
-0.037066
-0.046248
-0.042942
-0.031462
-0.036558
-0.05855
-0.068259
-0.067597
-0.07848
-0.079514
-0.111177
-0.082811
-0.084158
-0.084422
-0.074192
-0.066328
-0.059458
-0.045328
-0.052945
-0.036085
-0.030791
-0.037352
-0.037898
-0.027532
-0.034507
-0.049464
-0.057186
-0.059459
-0.068891
-0.066281
-0.089646
-0.083796
-0.078971
-0.07594
-0.058093
-0.056851
-0.054676
-0.04969
-0.050126
-0.037055
-0.044737
-0.04407
-0.043801
-0.037615
-0.03577
-0.065848
-0.069508
-0.058461
-0.061347
-0.068241
-0.050079
-0.077069
-0.082055
-0.080252
-0.073995
-0.060176
-0.072165
-0.072338
-0.044186
-0.035348
-0.023994
-0.039866
-0.022655
-0.012804
-0.02264
-0.044729
-0.045508
-0.052898
-0.066119
-0.073749
-0.068802
-0.075338
-0.075259
-0.076411
-0.063684
-0.055706
-0.040206
-0.048695
-0.036899
-0.049184
-0.029888
-0.038128
-0.039052
-0.035048
-0.049356
-0.051558
-0.049934
-0.043594
-0.078948
-0.077339
-0.071535
-0.077757
-0.081176
-0.077753
-0.071848
-0.066766
-0.068106
-0.072008
-0.055321
-0.047629
-0.037403
-0.022031
-0.016862
-0.018076
-0.039452
-0.056266
-0.052278
-0.054096
-0.07406
-0.078581
-0.081677
-0.07557
-0.08725
-0.086564
-0.082255
-0.060248
-0.067321
-0.058365
-0.054271
-0.035675
-0.036156
-0.031431
-0.035122
-0.035507
-0.036208
-0.04694
-0.061565
-0.060177
-0.058661
-0.057601
-0.070657
-0.065849
-0.083418
-0.066329
-0.077588
-0.073768
-0.050695
-0.037924
-0.071838
-0.062971
-0.046832
-0.039463
-0.033672
-0.040111
-0.043016
-0.050361
-0.068773
-0.07761
-0.074521
-0.071583
-0.08394
-0.084421
-0.083671
-0.092464
-0.089393
-0.071124
-0.061838
-0.049211
-0.056006
-0.064381
-0.055748
-0.043337
-0.04342
-0.043225
-0.052669
-0.047505
-0.05853
-0.065716
-0.058297
-0.071296
-0.081559
-0.096376
-0.094119
-0.103768
-0.101347
-0.077518
-0.052847
-0.051255
-0.063629
-0.049302
-0.04778
-0.044701
-0.042993
-0.046184
-0.045673
-0.061594
-0.06036
-0.061191
-0.071191
-0.076503
-0.078908
-0.100638
-0.09723
-0.090206
-0.082992
-0.058599
-0.06085
-0.062486
-0.052374
-0.050224
-0.04143
-0.032175
-0.036895
-0.03158
-0.041366
-0.024085
-0.034239
-0.034707
-0.052328
-0.089435
-0.093642
-0.072328
-0.063238
-0.064757
-0.033141
-0.04866
-0.056611
-0.029565
-0.011849
-0.044724
-0.023645
-0.012964
-0.021124
-0.024192
-0.023331
-0.011185
-0.011125
-0.018935
-0.037257
-0.050094
-0.044659
-0.048571
-0.045604
-0.04588
-0.038377
-0.041197
-0.020267
-0.010388
0.001223
0.003529
-0.003699
0.020837
0.01717
0.01799
-0.010052
-0.008002
-0.010074
-0.025734
-0.018694
-0.009894
-0.035595
-0.043277
-0.035601
-0.039153
-0.018936
0.002421
-0.007716
-0.007529
0.009713
0.021133
0.021153
0.019908
-0.00146
0.002874
-0.004029
-0.016426
-0.02121
-0.025093
-0.041869
-0.039514
-0.046074
-0.05403
-0.059196
-0.07071
-0.058814
-0.064358
-0.051319
-0.039496
-0.037721
-0.038153
-0.032278
-0.026291
-0.028703
-0.031257
-0.037971
-0.040075
-0.057527
-0.066358
-0.075375
-0.084223
-0.063837
-0.079691
-0.094736
-0.100229
-0.101284
-0.086573
-0.076296
-0.066235
-0.058333
-0.065339
-0.062957
-0.05494
-0.042219
-0.053182
-0.081647
-0.078556
-0.092823
-0.108399
-0.100962
-0.081964
-0.083564
-0.100775
-0.095624
-0.102275
-0.084415
-0.109725
-0.10423
-0.085813
-0.08069
-0.06756
-0.0652
-0.064873
-0.05998
-0.06396
-0.069723
-0.086536
-0.094241
-0.084515
-0.089956
-0.102821
-0.103118
-0.096027
-0.106722
-0.100892
-0.102327
-0.092749
-0.090181
-0.086363
-0.086955
-0.075039
-0.072543
-0.078818
-0.074916
-0.077635
-0.072016
-0.068442
-0.069007
-0.082753
-0.096935
-0.083917
-0.094627
-0.115265
-0.116545
-0.115979
-0.102444
-0.112135
-0.100679
-0.064885
-0.082831
-0.068219
-0.083469
-0.083853
-0.059328
-0.069969
-0.086566
-0.082087
-0.086426
-0.096944
-0.102514
-0.102092
-0.116066
-0.127506
-0.132629
-0.125089
-0.111903
-0.102267
-0.098196
-0.083038
-0.072451
-0.071385
-0.050262
-0.051644
-0.064737
-0.065018
-0.06951
-0.04987
-0.077883
-0.084166
-0.095954
-0.091793
-0.08158
-0.099634
-0.089223
-0.085805
-0.057534
-0.052012
-0.04944
-0.031037
-0.015697
-0.01934
0.012486
0.042773
0.075843
0.121302
0.144342
0.16767
0.153694
0.163656
0.200053
0.23851
0.247734
0.244099
0.273109
0.299893
0.320196
0.324814
0.343399
0.289228
0.261459
0.228428
0.16082
0.095345
0.058193
-0.011521
-0.049901
-0.10054
-0.115456
-0.137885
-0.170083
-0.195998
-0.202614
-0.21403
-0.206172
-0.221863
-0.213646
-0.21127
-0.202251
-0.204768
-0.19848
-0.196092
-0.176658
-0.152205
-0.135628
-0.143106
-0.134773
-0.102077
-0.109708
-0.118141
-0.109793
-0.117077
-0.110524
-0.123286
-0.129228
-0.113155
-0.100898
-0.096939
-0.065065
-0.062466
-0.076198
-0.073231
-0.053946
-0.04756
-0.01991
-0.032417
-0.058165
-0.057704
-0.069671
-0.057399
-0.083139
-0.085271
-0.092693
-0.093958
-0.099731
-0.092255
-0.095512
-0.084004
-0.065069
-0.070225
-0.054711
-0.046744
-0.05931
-0.043196
-0.027019
-0.053604
-0.063841
-0.044809
-0.07015
-0.07464
-0.07905
-0.075797
-0.080068
-0.084371
-0.087153
-0.084567
-0.073546
-0.067651
-0.055561
-0.043808
-0.033793
-0.024034
-0.034361
-0.029342
-0.046121
-0.049839
-0.04436
-0.03715
-0.031214
-0.061238
-0.073605
-0.08415
-0.087009
-0.085834
-0.093673
-0.07706
-0.063945
-0.067519
-0.076762
-0.054886
-0.046052
-0.027582
-0.03848
-0.025477
-0.017611
-0.013955
-0.029712
-0.037232
-0.058328
-0.056809
-0.048445
-0.060317
-0.067894
-0.074305
-0.080739
-0.079425
-0.063416
-0.063874
-0.057424
-0.036226
-0.029273
-0.039195
-0.037284
-0.025285
-0.006618
-0.023714
-0.036597
-0.027744
-0.054408
-0.069795
-0.048471
-0.055839
-0.048772
-0.055281
-0.062417
-0.062324
-0.05981
-0.070373
-0.043219
-0.029975
-0.018217
-0.016793
-0.015855
-0.019369
-0.00496
-0.017703
-0.01741
-0.027325
-0.037853
-0.039515
-0.050089
-0.057908
-0.061081
-0.053701
-0.045192
-0.038362
-0.051443
-0.052302
-0.044345
-0.040955
-0.029334
-0.029117
-0.018733
0.008961
0.008295
-0.010795
-0.006846
0.002513
-0.024308
-0.0517
-0.042618
-0.049278
-0.051094
-0.047068
-0.052342
-0.05208
-0.034901
-0.022779
-0.012635
-0.022214
-0.018322
-0.000983
-0.001195
0.008375
0.008411
0.011757
0.016768
0.021504
-0.00303
-0.017489
-0.023081
-0.027024
-0.02266
-0.02605
-0.027733
-0.033279
-0.026808
-0.032034
-0.018804
-0.000078
0.006908
0.01594
0.020193
0.034533
0.034226
0.037203
0.025172
0.033368
0.042121
0.014933
0.000103
-0.000625
0.009953
0.014794
-0.00318
-0.001373
0.014539
-0.008043
0.006876
0.015011
0.032113
0.042042
0.032215
0.043428
0.038574
0.047008
0.045089
0.031208
0.032501
0.032455
0.022153
0.024672
0.019948
0.005973
0.022352
0.028893
0.018567
0.023559
0.034851
0.047511
0.053536
0.067873
0.061733
0.0721
0.082046
0.070088
0.068664
0.070069
0.069299
0.065257
0.05118
0.031515
0.046605
0.038827
0.040822
0.051478
0.049808
0.042667
0.042754
0.051041
0.058638
0.081701
0.102892
0.088744
0.077872
0.09025
0.095581
0.081618
0.071954
0.066433
0.066533
0.041506
0.037047
0.031398
0.031088
0.033677
0.029975
0.030787
0.041149
0.03808
0.044358
0.049626
0.04448
0.066958
0.04412
0.049498
0.062009
0.056665
0.040411
0.029174
0.010534
-0.011763
-0.025519
-0.027727
-0.026745
-0.039969
-0.033647
-0.030865
-0.014112
-0.013035
-0.007806
0.012001
0.001121
0.005138
0.000108
0.002253
-0.00286
-0.016686
-0.012613
-0.011838
-0.02622
-0.033242
-0.050863
-0.069806
-0.069861
-0.067349
-0.058052
-0.054058
-0.048354
-0.041293
-0.05025
-0.052578
-0.032758
-0.050093
-0.030469
-0.029915
-0.019837
-0.014056
-0.020777
-0.054105
-0.062551
-0.069285
-0.074361
-0.08795
-0.079424
-0.075112
-0.067004
-0.077627
-0.062286
-0.067585
-0.065043
-0.054513
-0.055216
-0.036682
-0.03121
-0.033796
-0.028917
-0.036639
-0.025491
-0.059956
-0.083135
-0.066464
-0.077516
-0.091571
-0.098882
-0.077955
-0.075946
-0.080264
-0.076934
-0.07501
-0.069341
-0.066624
-0.049959
-0.049786
-0.046661
-0.034525
-0.050922
-0.05818
-0.076143
-0.067733
-0.069595
-0.090333
-0.089837
-0.0878
-0.09251
-0.087391
-0.091428
-0.085553
-0.067818
-0.061667
-0.069544
-0.07461
-0.044551
-0.044819
-0.038066
-0.026997
-0.034911
-0.050465
-0.059866
-0.074153
-0.065159
-0.079988
-0.086
-0.075908
-0.072324
-0.089182
-0.083196
-0.079606
-0.077691
-0.075756
-0.056915
-0.049556
-0.048541
-0.056686
-0.037714
-0.047414
-0.056587
-0.059543
-0.058971
-0.095585
-0.095579
-0.080263
-0.065501
-0.068327
-0.098889
-0.084973
-0.072046
-0.075906
-0.058721
-0.058223
-0.065335
-0.045001
-0.044549
-0.038435
-0.022505
-0.03263
-0.038362
-0.044777
-0.051122
-0.05875
-0.058875
-0.066791
-0.065317
-0.07994
-0.093983
-0.079681
-0.09699
-0.08403
-0.078898
-0.070364
-0.056285
-0.045071
-0.043565
-0.039231
-0.045953
-0.014447
-0.004826
-0.021035
-0.040336
-0.051839
-0.04499
-0.075159
-0.084198
-0.08786
-0.067705
-0.090909
-0.085196
-0.084979
-0.064792
-0.055512
-0.049323
-0.036326
-0.057608
-0.047185
-0.04819
-0.038969
-0.022268
-0.034552
-0.042618
-0.05303
-0.049485
-0.066857
-0.061774
-0.082519
-0.074405
-0.079406
-0.090087
-0.067614
-0.044435
-0.045853
-0.054863
-0.036547
-0.039516
-0.047837
-0.042773
-0.039298
-0.035386
-0.053474
-0.060962
-0.062442
-0.064973
-0.065099
-0.07614
-0.07303
-0.077267
-0.089593
-0.078312
-0.074121
-0.075238
-0.067135
-0.054662
-0.050145
-0.048249
-0.049422
-0.044671
-0.043379
-0.042259
-0.040773
-0.049046
-0.048857
-0.066209
-0.075087
-0.073999
-0.073338
-0.071987
-0.086626
-0.090051
-0.081817
-0.079691
-0.065031
-0.061471
-0.065054
-0.048517
-0.049458
-0.033851
-0.044012
-0.041053
-0.058468
-0.056994
-0.055257
-0.062512
-0.067119
-0.072945
-0.076256
-0.084688
-0.090514
-0.081947
-0.075864
-0.076487
-0.068322
-0.057986
-0.04925
-0.041281
-0.045589
-0.034571
-0.048237
-0.049614
-0.053464
-0.060361
-0.077049
-0.073419
-0.074207
-0.076436
-0.093007
-0.093889
-0.098382
-0.122287
-0.093938
-0.090636
-0.075284
-0.066818
-0.066745
-0.061445
-0.054593
-0.039621
-0.02117
-0.034717
-0.045603
-0.04703
-0.05961
-0.063296
-0.068972
-0.065588
-0.071043
-0.093804
-0.098469
-0.089891
-0.082916
-0.073813
-0.059829
-0.068066
-0.062364
-0.064397
-0.055577
-0.044449
-0.043573
-0.049826
-0.04512
-0.042579
-0.049653
-0.065751
-0.074489
-0.07862
-0.084706
-0.085189
-0.073083
-0.070226
-0.073953
-0.072243
-0.052363
-0.054335
-0.052664
-0.048623
-0.022351
-0.012602
-0.000938
-0.008798
-0.018033
-0.017424
-0.038905
-0.04629
-0.057697
-0.049494
-0.038451
-0.048796
-0.040299
-0.048309
-0.036588
-0.029535
-0.024445
-0.010514
-0.003202
0.004315
0.006098
0.017377
0.023966
0.016559
0.000349
-0.018034
-0.018904
-0.033203
-0.020034
-0.016428
-0.033589
-0.031602
-0.033338
-0.023179
-0.027581
-0.011599
-0.002361
0.002098
0.010664
0.033515
0.02656
0.009818
0.009922
0.018271
0.002391
-0.002784
-0.0171
-0.020914
-0.024117
-0.024013
-0.034911
-0.055466
-0.050669
-0.053698
-0.052396
-0.065922
-0.046488
-0.040223
-0.032667
-0.024239
-0.016553
-0.018624
-0.007395
-0.014231
-0.017557
-0.025869
-0.047325
-0.049308
-0.063101
-0.075325
-0.076526
-0.071957
-0.077831
-0.076891
-0.075548
-0.06919
-0.071915
-0.075689
-0.073735
-0.064143
-0.048239
-0.036604
-0.051062
-0.05193
-0.039643
-0.053628
-0.094135
-0.094185
-0.085297
-0.093591
-0.092843
-0.108429
-0.099361
-0.10665
-0.097964
-0.103712
-0.087405
-0.085422
-0.062972
-0.055365
-0.058856
-0.067928
-0.054709
-0.056161
-0.055791
-0.059858
-0.083256
-0.081156
-0.0975
-0.088217
-0.092885
-0.109384
-0.115326
-0.115068
-0.102562
-0.097885
-0.091616
-0.101562
-0.075958
-0.083958
-0.082954
-0.080693
-0.07137
-0.072664
-0.078205
-0.076833
-0.08052
-0.102382
-0.107076
-0.097674
-0.109604
-0.119325
-0.114014
-0.104165
-0.103024
-0.096838
-0.094463
-0.081345
-0.085557
-0.098638
-0.081643
-0.07573
-0.080546
-0.07821
-0.094456
-0.083554
-0.093454
-0.099979
-0.102713
-0.115357
-0.114028
-0.118091
-0.108378
-0.109342
-0.111548
-0.103481
-0.086584
-0.079165
-0.073227
-0.078712
-0.071319
-0.062242
-0.066884
-0.064785
-0.077371
-0.070306
-0.085435
-0.09252
-0.110958
-0.119011
-0.113449
-0.107687
-0.108757
-0.110468
-0.110771
-0.101926
-0.090696
-0.061151
-0.058202
-0.040963
-0.025594
-0.021897
-0.022139
-0.022135
-0.012295
-0.002184
-0.008205
0.00553
0.03577
0.080603
0.113778
0.111559
0.117578
0.139782
0.178725
0.194592
0.238155
0.268499
0.281708
0.314633
0.355821
0.368473
0.3756
0.361223
0.308519
0.286879
0.239893
0.151779
0.073935
-0.011321
-0.10423
-0.142854
-0.149484
-0.167168
-0.18899
-0.212135
-0.212414
-0.209267
-0.212901
-0.196855
-0.178428
-0.169851
-0.171775
-0.18672
-0.180689
-0.179409
-0.176421
-0.169229
-0.179787
-0.184238
-0.173438
-0.178613
-0.169882
-0.167253
-0.138607
-0.128935
-0.112101
-0.103912
-0.098611
-0.069625
-0.069649
-0.063937
-0.047074
-0.0357
-0.029429
-0.061208
-0.06812
-0.062214
-0.063416
-0.078846
-0.088376
-0.088615
-0.086901
-0.090659
-0.08636
-0.09146
-0.087408
-0.078403
-0.088195
-0.073781
-0.064995
-0.048358
-0.057745
-0.057174
-0.055362
-0.052096
-0.064481
-0.065964
-0.056654
-0.07522
-0.076627
-0.098819
-0.096229
-0.091325
-0.082898
-0.06945
-0.053698
-0.058999
-0.055383
-0.057945
-0.048185
-0.037506
-0.046656
-0.050965
-0.045224
-0.045641
-0.060281
-0.056856
-0.061751
-0.059621
-0.06388
-0.066944
-0.105958
-0.086927
-0.086133
-0.07816
-0.074624
-0.070884
-0.05292
-0.047746
-0.042272
-0.036004
-0.027313
-0.04423
-0.04882
-0.048196
-0.023768
-0.035608
-0.042342
-0.058276
-0.060655
-0.07206
-0.077726
-0.087208
-0.069141
-0.063361
-0.054581
-0.045674
-0.045271
-0.041988
-0.030559
-0.040913
-0.037015
-0.024288
-0.024677
-0.033524
-0.03991
-0.043677
-0.053534
-0.057223
-0.052901
-0.067718
-0.071315
-0.067863
-0.05829
-0.0539
-0.059666
-0.040632
-0.02846
-0.016209
-0.0205
-0.024865
-0.02342
-0.02042
-0.019693
-0.009538
-0.028702
-0.041063
-0.041896
-0.047786
-0.054216
-0.061554
-0.056911
-0.061914
-0.052782
-0.052578
-0.054346
-0.029888
-0.041782
-0.029557
-0.033743
-0.01646
-0.022795
-0.008615
0.001932
-0.000641
-0.014271
-0.026889
-0.038679
-0.039103
-0.040001
-0.059827
-0.067485
-0.054763
-0.046248
-0.02881
-0.016502
-0.03288
-0.030885
-0.019961
-0.015728
-0.008522
0.012842
0.019393
0.025377
0.022101
0.002759
-0.022673
-0.020764
-0.027731
-0.024599
-0.026811
-0.040563
-0.039741
-0.024308
-0.015017
-0.01393
-0.004319
-0.008778
-0.002489
-0.007491
0.005049
0.024637
0.045269
0.032849
0.022828
0.019153
0.024056
0.011797
0.002536
0.001236
0.000682
-0.017874
-0.023063
-0.021606
-0.00378
0.001568
0.007492
0.027829
0.027662
0.045377
0.071086
0.060703
0.053671
0.046996
0.048659
0.043356
0.033939
0.034705
0.031497
0.022724
0.023665
0.00818
0.004912
0.011945
0.033254
0.037299
0.043328
0.066052
0.064257
0.058149
0.059912
0.071368
0.067156
0.05825
0.061159
0.067236
0.050693
0.049284
0.027348
0.022131
0.024849
0.030556
0.05804
0.051417
0.049269
0.045828
0.062666
0.070583
0.075809
0.077579
0.092124
0.101031
0.101693
0.09627
0.074538
0.064377
0.074113
0.077175
0.046766
0.035856
0.04262
0.042112
0.038201
0.049057
0.057295
0.074244
0.074598
0.078353
0.081417
0.082088
0.070019
0.083795
0.078917
0.072017
0.058717
0.045655
0.052334
0.067283
0.032888
0.034448
0.004036
0.004987
-0.000487
0.006217
0.018539
0.012326
0.026828
0.005555
0.019689
-0.00068
0.001333
0.017644
0.028445
0.020113
0.011892
0.002726
-0.005145
-0.005706
-0.00853
-0.010129
-0.026424
-0.037363
-0.055622
-0.048687
-0.032311
-0.026099
-0.048727
-0.029015
-0.030553
-0.02062
-0.024371
-0.013932
-0.00965
-0.013202
-0.027502
-0.030227
-0.036843
-0.05304
-0.051829
-0.051153
-0.051911
-0.08742
-0.075078
-0.074989
-0.060721
-0.061546
-0.061614
-0.062569
-0.046224
-0.046348
-0.040629
-0.039974
-0.034707
-0.024258
-0.02536
-0.034641
-0.032167
-0.060816
-0.065269
-0.078362
-0.069463
-0.074748
-0.072777
-0.077134
-0.072632
-0.067852
-0.051095
-0.042699
-0.0542
-0.038661
-0.046859
-0.03158
-0.032811
-0.037168
-0.035949
-0.02913
-0.055791
-0.069359
-0.084425
-0.08251
-0.082626
-0.078641
-0.083916
-0.063729
-0.067493
-0.074616
-0.05781
-0.056973
-0.052199
-0.044512
-0.050059
-0.0359
-0.042133
-0.040886
-0.040287
-0.05581
-0.063122
-0.058888
-0.081352
-0.080793
-0.052278
-0.05607
-0.045505
-0.056865
-0.058065
-0.068944
-0.062726
-0.061975
-0.052422
-0.040381
-0.037356
-0.030765
-0.023328
-0.024459
-0.030205
-0.030918
-0.057494
-0.056707
-0.064626
-0.079625
-0.074246
-0.084707
-0.085448
-0.075303
-0.066019
-0.067715
-0.05383
-0.055006
-0.046293
-0.042511
-0.044238
-0.022556
-0.02539
-0.010921
-0.029125
-0.036091
-0.047432
-0.045231
-0.059984
-0.081639
-0.084905
-0.075526
-0.064545
-0.063124
-0.068151
-0.069233
-0.05287
-0.038858
-0.038479
-0.0433
-0.041588
-0.030325
-0.018812
-0.030283
-0.034079
-0.033299
-0.047418
-0.029377
-0.062388
-0.062282
-0.09101
-0.106917
-0.086357
-0.089836
-0.068591
-0.069078
-0.056323
-0.053988
-0.039531
-0.031903
-0.043892
-0.030266
-0.014535
-0.024728
-0.032421
-0.037376
-0.053147
-0.049456
-0.066318
-0.06449
-0.077857
-0.086602
-0.088803
-0.092389
-0.069737
-0.067507
-0.051186
-0.049185
-0.031844
-0.035353
-0.043516
-0.011474
-0.035292
-0.033849
-0.033871
-0.034519
-0.048153
-0.057084
-0.059171
-0.064779
-0.061295
-0.055643
-0.063967
-0.077551
-0.060526
-0.062
-0.044096
-0.051698
-0.02955
-0.023506
-0.034421
-0.020942
-0.038477
-0.027804
-0.030497
-0.028295
-0.029837
-0.033759
-0.063105
-0.067155
-0.06406
-0.071082
-0.07276
-0.065417
-0.05462
-0.057969
-0.048198
-0.040229
-0.047741
-0.039355
-0.030229
-0.035775
-0.042239
-0.040593
-0.038091
-0.04516
-0.049261
-0.049135
-0.059882
-0.06429
-0.070052
-0.083619
-0.07683
-0.083367
-0.071636
-0.074682
-0.064872
-0.057753
-0.042893
-0.04903
-0.050785
-0.025425
-0.024873
-0.019662
-0.037565
-0.042508
-0.060672
-0.060789
-0.063973
-0.082685
-0.090005
-0.086838
-0.08269
-0.078019
-0.073117
-0.064188
-0.04787
-0.060333
-0.051366
-0.040055
-0.031606
-0.02139
-0.017766
-0.045514
-0.049164
-0.04248
-0.048507
-0.062615
-0.071839
-0.06045
-0.072528
-0.101066
-0.093708
-0.076524
-0.057246
-0.055002
-0.041978
-0.040797
-0.047889
-0.053663
-0.049457
-0.027089
-0.026271
-0.021924
-0.028411
-0.042631
-0.051626
-0.047418
-0.051116
-0.06408
-0.062721
-0.066798
-0.076601
-0.08424
-0.065529
-0.06105
-0.039728
-0.042004
-0.060955
-0.065937
-0.050729
-0.03776
-0.032123
-0.040307
-0.042965
-0.042643
-0.054789
-0.064717
-0.073982
-0.086159
-0.070872
-0.069842
-0.057933
-0.077745
-0.068125
-0.064802
-0.065422
-0.064455
-0.044471
-0.033468
-0.042334
-0.026225
-0.020022
-0.023714
-0.030315
-0.036502
-0.047986
-0.047239
-0.059275
-0.060072
-0.056094
-0.063385
-0.085462
-0.081738
-0.07312
-0.063354
-0.047508
-0.039857
-0.021538
-0.02141
-0.007669
0.00939
0.003918
-0.001047
-0.024473
-0.017693
-0.007862
-0.005576
-0.017279
-0.035166
-0.031238
-0.030507
-0.032219
-0.037945
-0.033454
-0.03057
-0.017148
-0.010794
0.002465
0.005106
0.008013
0.016671
0.028641
0.012441
-0.000832
0.008397
0.004034
0.007609
0.012199
0.00694
-0.01316
-0.022124
-0.022281
-0.022077
-0.022247
-0.025205
-0.004274
0.034389
0.038288
0.00932
0.011653
0.01539
0.017884
0.007116
0.017234
-0.005911
-0.013065
-0.018289
-0.024328
-0.039738
-0.043492
-0.063
-0.055199
-0.044334
-0.046207
-0.055751
-0.022708
-0.017295
-0.017988
-0.00602
-0.02188
-0.037053
-0.030969
-0.015434
-0.026954
-0.030649
-0.036772
-0.04743
-0.060052
-0.068544
-0.072565
-0.079906
-0.09138
-0.084585
-0.077914
-0.077809
-0.063442
-0.059916
-0.055083
-0.055164
-0.051479
-0.045349
-0.041897
-0.037361
-0.046188
-0.055331
-0.062181
-0.069068
-0.077956
-0.076739
-0.071005
-0.099671
-0.105479
-0.0987
-0.104699
-0.085117
-0.086242
-0.077486
-0.073227
-0.069417
-0.082664
-0.066686
-0.066461
-0.058642
-0.04761
-0.042758
-0.073498
-0.073775
-0.065862
-0.074875
-0.092942
-0.087626
-0.08589
-0.093322
-0.093782
-0.091454
-0.089248
-0.089593
-0.081593
-0.064767
-0.081405
-0.076976
-0.049124
-0.038076
-0.055552
-0.07807
-0.089623
-0.076211
-0.088005
-0.08556
-0.089765
-0.102838
-0.108355
-0.112614
-0.107169
-0.10199
-0.086407
-0.083498
-0.076124
-0.071971
-0.06057
-0.045766
-0.05577
-0.052062
-0.046901
-0.069395
-0.072903
-0.065829
-0.089339
-0.104766
-0.100118
-0.105232
-0.116649
-0.112796
-0.11753
-0.116243
-0.106104
-0.063069
-0.052995
-0.05943
-0.076732
-0.068744
-0.055086
-0.059949
-0.067279
-0.085008
-0.086783
-0.092199
-0.089274
-0.098491
-0.10202
-0.111942
-0.100515
-0.102275
-0.100637
-0.095262
-0.065832
-0.040059
-0.043092
-0.024644
-0.026459
0.009458
0.017056
0.015727
0.057681
0.069727
0.106649
0.144771
0.139249
0.153644
0.17225
0.191215
0.20253
0.238825
0.263397
0.285851
0.296871
0.324165
0.339404
0.362005
0.35778
0.325864
0.305912
0.258512
0.180382
0.103242
0.014665
-0.075249
-0.093838
-0.109797
-0.120966
-0.152811
-0.188091
-0.207512
-0.223729
-0.206389
-0.202775
-0.194389
-0.194127
-0.167574
-0.164452
-0.16894
-0.155314
-0.144133
-0.134894
-0.147634
-0.154407
-0.149876
-0.146108
-0.14992
-0.146452
-0.133865
-0.135024
-0.126702
-0.111369
-0.101683
-0.107059
-0.088191
-0.076419
-0.045253
-0.055486
-0.045161
-0.030742
-0.026819
-0.02883
-0.058424
-0.058565
-0.065043
-0.049642
-0.048229
-0.08715
-0.090459
-0.102066
-0.094369
-0.097702
-0.092228
-0.074515
-0.064552
-0.054788
-0.058875
-0.05294
-0.050447
-0.041015
-0.037828
-0.038071
-0.04887
-0.045623
-0.050191
-0.042194
-0.068317
-0.078707
-0.08619
-0.076319
-0.078028
-0.082341
-0.087492
-0.073587
-0.060177
-0.045964
-0.029091
-0.031588
-0.020962
-0.023186
-0.01957
-0.029292
-0.030142
-0.031162
-0.058703
-0.056658
-0.078876
-0.071001
-0.070754
-0.079626
-0.073074
-0.067872
-0.062357
-0.055083
-0.060578
-0.051319
-0.020205
-0.02832
-0.036509
-0.024601
-0.007044
-0.004574
-0.010354
-0.043584
-0.057264
-0.066305
-0.059462
-0.061596
-0.074338
-0.082549
-0.077856
-0.064831
-0.06569
-0.02145
-0.037057
-0.057528
-0.03024
-0.028445
-0.033917
-0.022651
-0.02452
-0.024327
-0.033913
-0.035025
-0.039254
-0.043975
-0.046848
-0.050348
-0.053315
-0.074142
-0.061971
-0.047792
-0.043109
-0.053647
-0.053842
-0.053332
-0.036312
-0.017404
-0.024237
-0.013656
-0.013311
0.003148
-0.010696
-0.019521
-0.028678
-0.037273
-0.055227
-0.062164
-0.062103
-0.081677
-0.066702
-0.036614
-0.032405
-0.027874
-0.026167
-0.026181
-0.013746
-0.006619
-0.004037
-0.009284
0.002267
-0.000848
-0.000841
-0.021033
-0.031213
-0.025252
-0.034492
-0.026251
-0.03381
-0.043257
-0.04043
-0.041941
-0.0328
-0.018079
-0.017689
-0.039696
-0.014994
-0.010156
-0.000128
0.013607
-0.012842
-0.00373
0.001012
0.001103
-0.027242
-0.030102
-0.0339
-0.027241
-0.011323
-0.032024
-0.028118
-0.035217
-0.022823
-0.003939
0.007631
0.008893
0.012668
0.028691
0.026234
0.026059
0.029283
0.019396
0.025874
0.013833
0.0232
-0.002473
-0.012881
0.002295
0.006761
-0.016172
-0.013296
-0.020047
-0.006009
0.012492
0.025321
0.018653
0.016484
0.024991
0.034049
0.052948
0.056241
0.050102
0.040898
0.051027
0.04732
0.035227
0.020236
0.016651
0.020951
0.007307
0.022922
0.003088
0.018725
0.017792
0.040656
0.032691
0.041343
0.050483
0.062092
0.07075
0.066885
0.081858
0.08143
0.066996
0.049999
0.055613
0.047611
0.041157
0.031111
0.029426
0.020154
0.023171
0.027678
0.031508
0.049555
0.072463
0.079778
0.07262
0.059645
0.069244
0.086021
0.073242
0.053813
0.066089
0.067658
0.066686
0.045325
0.045981
0.055959
0.045816
0.021866
0.029169
0.031519
0.03606
0.054469
0.050076
0.065866
0.065271
0.071659
0.066556
0.064987
0.054675
0.043091
0.043256
0.030575
0.027515
0.025357
0.008326
0.011874
-0.003642
0.020823
0.012962
-0.013793
-0.005515
0.013466
0.004357
0.02445
0.027242
0.023813
0.016163
0.015251
0.005861
0.010275
0.00666
-0.017954
-0.031652
-0.035898
-0.034052
-0.05423
-0.052496
-0.06244
-0.085959
-0.081055
-0.058284
-0.046915
-0.030668
-0.029468
-0.033996
-0.035587
-0.021716
-0.02102
-0.022683
-0.027247
-0.030199
-0.042069
-0.051084
-0.059732
-0.052322
-0.069918
-0.079711
-0.072339
-0.084369
-0.081295
-0.082679
-0.075747
-0.070079
-0.074864
-0.071028
-0.054756
-0.055819
-0.044433
-0.047664
-0.04847
-0.052958
-0.05346
-0.065654
-0.065475
-0.085036
-0.078922
-0.085319
-0.074748
-0.088281
-0.080653
-0.084476
-0.0777
-0.075637
-0.067993
-0.060273
-0.041758
-0.027369
-0.029518
-0.036
-0.035157
-0.044911
-0.060762
-0.062448
-0.076256
-0.090089
-0.090946
-0.087316
-0.096399
-0.092842
-0.113323
-0.092595
-0.065645
-0.072401
-0.066274
-0.047932
-0.055908
-0.03969
-0.048061
-0.051508
-0.045977
-0.051491
-0.048152
-0.056511
-0.073751
-0.078738
-0.086101
-0.095913
-0.108194
-0.095131
-0.093123
-0.085219
-0.065599
-0.065552
-0.032406
-0.019982
-0.042845
-0.039729
-0.045156
-0.039274
-0.052091
-0.054595
-0.062752
-0.077397
-0.079575
-0.085771
-0.083775
-0.082654
-0.096399
-0.117436
-0.095017
-0.087892
-0.088391
-0.067008
-0.046576
-0.047486
-0.059331
-0.059956
-0.031592
-0.029697
-0.039058
-0.045584
-0.064956
-0.060862
-0.071927
-0.076332
-0.076765
-0.091082
-0.098228
-0.091333
-0.085561
-0.074983
-0.069515
-0.065151
-0.072884
-0.058648
-0.040422
-0.035684
-0.045553
-0.03979
-0.054778
-0.054791
-0.054392
-0.060092
-0.063557
-0.078081
-0.086529
-0.092658
-0.080853
-0.093598
-0.083803
-0.083038
-0.072375
-0.07444
-0.057169
-0.058161
-0.063011
-0.035719
-0.029698
-0.03354
-0.037516
-0.049904
-0.06216
-0.067762
-0.069271
-0.081044
-0.083988
-0.084485
-0.085056
-0.077641
-0.075671
-0.07355
-0.065901
-0.054331
-0.059687
-0.050375
-0.052608
-0.045788
-0.040994
-0.029058
-0.056157
-0.057904
-0.059434
-0.06618
-0.064807
-0.088173
-0.094191
-0.085029
-0.081485
-0.105234
-0.085581
-0.079789
-0.074024
-0.073026
-0.068419
-0.044212
-0.035425
-0.038676
-0.015704
-0.031581
-0.041019
-0.04979
-0.072749
-0.075811
-0.068621
-0.082413
-0.088773
-0.100795
-0.116403
-0.108998
-0.098127
-0.100226
-0.088362
-0.069987
-0.063807
-0.053457
-0.042936
-0.03171
-0.040846
-0.043072
-0.036002
-0.039373
-0.060125
-0.079556
-0.070998
-0.081042
-0.080443
-0.084938
-0.10797
-0.085217
-0.066113
-0.115132
-0.086873
-0.078509
-0.070072
-0.066342
-0.066324
-0.057712
-0.055688
-0.052318
-0.052349
-0.061666
-0.065096
-0.07484
-0.067406
-0.075598
-0.079436
-0.090941
-0.097899
-0.095832
-0.087526
-0.072766
-0.074265
-0.082917
-0.086035
-0.075712
-0.068164
-0.058879
-0.053487
-0.054927
-0.059921
-0.056458
-0.0675
-0.066285
-0.076171
-0.07772
-0.069475
-0.08351
-0.090037
-0.111027
-0.093881
-0.096595
-0.075581
-0.068796
-0.076217
-0.068498
-0.066517
-0.035255
-0.040423
-0.05201
-0.059417
-0.055956
-0.06848
-0.086837
-0.1019
-0.09359
-0.077029
-0.10142
-0.106154
-0.112041
-0.108295
-0.100973
-0.098254
-0.080142
-0.075053
-0.059272
-0.050131
-0.056121
-0.029936
-0.05117
-0.064413
-0.065185
-0.070913
-0.08169
-0.086482
-0.095128
-0.110934
-0.110055
-0.110758
-0.099006
-0.078691
-0.079039
-0.06961
-0.053588
-0.047511
-0.03194
-0.041423
-0.035072
-0.040371
-0.032463
-0.026657
-0.026735
-0.032831
-0.04711
-0.045767
-0.044914
-0.04949
-0.056725
-0.068094
-0.054168
-0.053144
-0.059086
-0.058659
-0.03424
-0.013678
-0.031585
-0.027929
-0.007515
0.00488
0.001909
-0.012545
-0.020455
-0.01798
-0.030546
-0.029892
-0.031555
-0.024085
-0.018648
-0.043342
-0.043036
-0.038908
-0.03399
-0.03101
-0.030715
-0.012892
-0.010093
0.00195
-0.000532
0.002874
0.009619
0.006237
-0.010053
-0.015254
-0.022702
-0.049046
-0.055558
-0.060787
-0.055674
-0.05977
-0.057708
-0.070154
-0.087692
-0.077434
-0.068919
-0.056441
-0.057921
-0.041761
-0.046893
-0.056152
-0.055091
-0.051768
-0.071335
-0.06053
-0.071458
-0.068077
-0.056189
-0.067815
-0.050599
-0.087728
-0.083295
-0.092001
-0.099621
-0.082995
-0.082111
-0.065824
-0.057708
-0.073412
-0.063089
-0.062241
-0.060902
-0.058705
-0.068051
-0.078943
-0.107554
-0.085067
-0.102048
-0.088201
-0.118528
-0.122017
-0.115702
-0.110855
-0.112218
-0.110315
-0.103026
-0.093339
-0.084978
-0.082881
-0.073166
-0.055131
-0.057219
-0.072923
-0.091005
-0.096038
-0.093669
-0.093107
-0.111625
-0.126558
-0.12123
-0.121147
-0.114251
-0.128882
-0.133806
-0.110647
-0.097123
-0.090829
-0.070395
-0.087347
-0.07965
-0.07263
-0.065963
-0.09644
-0.098949
-0.10073
-0.111716
-0.107601
-0.086424
-0.112257
-0.135518
-0.145972
-0.143711
-0.141836
-0.120011
-0.100018
-0.097762
-0.119687
-0.10109
-0.099049
-0.090763
-0.091267
-0.075278
-0.087428
-0.096643
-0.099691
-0.116031
-0.118146
-0.126882
-0.129527
-0.124305
-0.129864
-0.132273
-0.122502
-0.115937
-0.110032
-0.102283
-0.096369
-0.109375
-0.081093
-0.081216
-0.069016
-0.076589
-0.085414
-0.10291
-0.091746
-0.094161
-0.121762
-0.112938
-0.105659
-0.114054
-0.119025
-0.126726
-0.129634
-0.095834
-0.091514
-0.090151
-0.083805
-0.065961
-0.050142
-0.032615
-0.018708
-0.028771
-0.040213
-0.029383
-0.000974
0.009874
0.033071
0.060014
0.105539
0.118043
0.116051
0.12584
0.159161
0.191959
0.225002
0.262893
0.277199
0.307955
0.345391
0.338733
0.352133
0.26968
0.264811
0.226257
0.157817
0.079481
0.019637
-0.073481
-0.133238
-0.143342
-0.15196
-0.178542
-0.204249
-0.213701
-0.21966
-0.20146
-0.201511
-0.203591
-0.195251
-0.199013
-0.184739
-0.168698
-0.166652
-0.168523
-0.175636
-0.18382
-0.18632
-0.17683
-0.173393
-0.172351
-0.166977
-0.161937
-0.134031
-0.139756
-0.13243
-0.118166
-0.110662
-0.100727
-0.086399
-0.082731
-0.066208
-0.070057
-0.066011
-0.075467
-0.075744
-0.075042
-0.086484
-0.095809
-0.088682
-0.099858
-0.101652
-0.109904
-0.126743
-0.104797
-0.10612
-0.097079
-0.090382
-0.077738
-0.069906
-0.069666
-0.041956
-0.05574
-0.077158
-0.082744
-0.086209
-0.090403
-0.097334
-0.10721
-0.103025
-0.0914
-0.105049
-0.106002
-0.099217
-0.10142
-0.097059
-0.080392
-0.094691
-0.064465
-0.032823
-0.042934
-0.051592
-0.030867
-0.041895
-0.057101
-0.063015
-0.073505
-0.078453
-0.067126
-0.069595
-0.096883
-0.102615
-0.10913
-0.096632
-0.081356
-0.090364
-0.088678
-0.079769
-0.049729
-0.057257
-0.045196
-0.032608
-0.045369
-0.048826
-0.0605
-0.057952
-0.070662
-0.068681
-0.098739
-0.081132
-0.077391
-0.087441
-0.10385
-0.098606
-0.093077
-0.079694
-0.066274
-0.050537
-0.049797
-0.035321
-0.035431
-0.04022
-0.030752
-0.030612
-0.042416
-0.044538
-0.046768
-0.063053
-0.078367
-0.076702
-0.079552
-0.097114
-0.097039
-0.073178
-0.07221
-0.070473
-0.076332
-0.070277
-0.054838
-0.044308
-0.031015
-0.035067
-0.035268
-0.029342
-0.035612
-0.044894
-0.049974
-0.06029
-0.086844
-0.09099
-0.081247
-0.081368
-0.076573
-0.081825
-0.077033
-0.066839
-0.047324
-0.026668
-0.012374
-0.022538
-0.030623
-0.018484
-0.022043
-0.026273
-0.026078
-0.021486
-0.020894
-0.020994
-0.039964
-0.053651
-0.057941
-0.079328
-0.063351
-0.051154
-0.057964
-0.065147
-0.054669
-0.05242
-0.043918
-0.040853
-0.014072
-0.012241
-0.017478
-0.011038
-0.004308
-0.011426
-0.017187
-0.042149
-0.044591
-0.046108
-0.045746
-0.045848
-0.059732
-0.055443
-0.048749
-0.0416
-0.030557
-0.017772
-0.007806
0.002846
0.014013
0.010329
-0.002263
-0.018669
-0.011143
0.001315
-0.014991
-0.017344
-0.030788
-0.031709
-0.039277
-0.038299
-0.033504
-0.03112
-0.03233
-0.032118
-0.012109
-0.005404
0.011465
0.008163
0.018235
0.037811
0.034917
0.019406
0.03873
0.042574
0.031541
0.013577
0.008147
0.012794
0.021219
-0.00665
-0.017357
-0.014202
-0.014063
-0.015123
0.01889
0.034381
0.037471
0.039136
0.032681
0.054801
0.064989
0.046079
0.046079
0.047648
0.036136
0.035026
0.027975
0.008739
0.000154
0.009526
0.007153
0.010838
0.008883
0.020955
0.04612
0.041736
0.049072
0.057888
0.050771
0.060103
0.058356
0.088715
0.082697
0.062248
0.046521
0.03364
0.028608
0.023293
0.019157
0.015897
0.004104
0.006241
0.009331
0.019143
0.010114
0.045636
0.035834
0.035311
0.035965
0.042115
0.042907
0.042849
0.037904
0.043155
0.027169
0.004717
0.008285
0.001079
0.001895
-0.012858
-0.03081
-0.018263
-0.026228
-0.019973
-0.014623
-0.026252
-0.023679
-0.017808
-0.025659
-0.033119
-0.015581
-0.019058
-0.025504
-0.034283
-0.044448
-0.042106
-0.036689
-0.05035
-0.044213
-0.061134
-0.059224
-0.063966
-0.071132
-0.065267
-0.048977
-0.051789
-0.078062
-0.066653
-0.053076
-0.039158
-0.034832
-0.044284
-0.05083
-0.053395
-0.066013
-0.069262
-0.068991
-0.075573
-0.067846
-0.080394
-0.094678
-0.100304
-0.084608
-0.094353
-0.087565
-0.081985
-0.086266
-0.094694
-0.065528
-0.064842
-0.059543
-0.047197
-0.050393
-0.0435
-0.077913
-0.084419
-0.083146
-0.083548
-0.087564
-0.109827
-0.122412
-0.113269
-0.107223
-0.092299
-0.093544
-0.102967
-0.090573
-0.071738
-0.082278
-0.075652
-0.063712
-0.039987
-0.043545
-0.050839
-0.071571
-0.098226
-0.099528
-0.118308
-0.118707
-0.111449
-0.110198
-0.122823
-0.115409
-0.100531
-0.079247
-0.081273
-0.073844
-0.082456
-0.082563
-0.075475
-0.082581
-0.08861
-0.082927
-0.07446
-0.068652
-0.079926
-0.090137
-0.101141
-0.096526
-0.093995
-0.096041
-0.116799
-0.102502
-0.106303
-0.095864
-0.089553
-0.088838
-0.069352
-0.070856
-0.067901
-0.080456
-0.071716
-0.074625
-0.065421
-0.072135
-0.074454
-0.088637
-0.10261
-0.101203
-0.115975
-0.10935
-0.121308
-0.11641
-0.106409
-0.090932
-0.071776
-0.059116
-0.06504
-0.077619
-0.074555
-0.061233
-0.061725
-0.059043
-0.0728
-0.074906
-0.077439
-0.070218
-0.098913
-0.104172
-0.095277
-0.11695
-0.117719
-0.106573
-0.09016
-0.090422
-0.087621
-0.081359
-0.075743
-0.072914
-0.062892
-0.036007
-0.053257
-0.061248
-0.066828
-0.068308
-0.077375
-0.088188
-0.091509
-0.094031
-0.102116
-0.094452
-0.083115
-0.091881
-0.097967
-0.09523
-0.090354
-0.081199
-0.067512
-0.065596
-0.058187
-0.064627
-0.055829
-0.04502
-0.057794
-0.058322
-0.073011
-0.093979
-0.094773
-0.098463
-0.094514
-0.094622
-0.112332
-0.113208
-0.10353
-0.103546
-0.095487
-0.099165
-0.075694
-0.083656
-0.067361
-0.059363
-0.061453
-0.043245
-0.051757
-0.072199
-0.07972
-0.079366
-0.084351
-0.086235
-0.097919
-0.081604
-0.091057
-0.120812
-0.10991
-0.090192
-0.072725
-0.08282
-0.066253
-0.064537
-0.069901
-0.057339
-0.065584
-0.068428
-0.074944
-0.083338
-0.090624
-0.102342
-0.099317
-0.091986
-0.086016
-0.108246
-0.106557
-0.092308
-0.083511
-0.087068
-0.076809
-0.079192
-0.066536
-0.070836
-0.081016
-0.054154
-0.065628
-0.059753
-0.065819
-0.078141
-0.083081
-0.077076
-0.09047
-0.107918
-0.094301
-0.111167
-0.115736
-0.116989
-0.109835
-0.106003
-0.094134
-0.096274
-0.06825
-0.07089
-0.064252
-0.076744
-0.063177
-0.059051
-0.076355
-0.074273
-0.074879
-0.092874
-0.10037
-0.093561
-0.116238
-0.119198
-0.132047
-0.105309
-0.10844
-0.107731
-0.081115
-0.077383
-0.062215
-0.054161
-0.076014
-0.070633
-0.062327
-0.067338
-0.078532
-0.066983
-0.075618
-0.079106
-0.107416
-0.106416
-0.100264
-0.101204
-0.118526
-0.124237
-0.129186
-0.121729
-0.097833
-0.076325
-0.069012
-0.061074
-0.070289
-0.060065
-0.050852
-0.03908
-0.051813
-0.066114
-0.087551
-0.085518
-0.099919
-0.112155
-0.102895
-0.101198
-0.09578
-0.095429
-0.086041
-0.076838
-0.073412
-0.06416
-0.052536
-0.058891
-0.046832
-0.026178
-0.019863
-0.030861
-0.041754
-0.043924
-0.056462
-0.05261
-0.061531
-0.071951
-0.053547
-0.089452
-0.108282
-0.079056
-0.078115
-0.063064
-0.043386
-0.040813
-0.017694
-0.013099
-0.017117
0.000561
-0.008239
-0.024616
-0.03837
-0.015961
-0.026687
-0.029168
-0.041643
-0.050421
-0.052293
-0.05356
-0.052752
-0.070139
-0.060997
-0.046066
-0.042952
-0.036808
-0.016199
-0.020642
-0.02417
-0.020646
-0.00707
-0.009011
-0.027662
-0.040436
-0.044856
-0.034186
-0.055765
-0.079503
-0.086255
-0.090116
-0.08435
-0.080967
-0.063269
-0.064813
-0.065989
-0.043576
-0.053163
-0.051381
-0.044444
-0.048658
-0.060971
-0.066317
-0.066399
-0.073313
-0.089728
-0.079595
-0.096982
-0.102122
-0.092415
-0.095288
-0.102395
-0.125173
-0.107411
-0.094781
-0.092533
-0.094477
-0.086556
-0.078107
-0.089515
-0.079012
-0.082714
-0.085338
-0.064891
-0.064309
-0.092884
-0.111129
-0.124983
-0.117752
-0.11919
-0.120157
-0.151757
-0.143479
-0.12372
-0.128147
-0.114245
-0.103304
-0.097505
-0.09239
-0.08117
-0.083113
-0.073121
-0.072228
-0.082138
-0.091034
-0.109914
-0.125774
-0.137586
-0.132685
-0.140013
-0.145973
-0.133581
-0.127625
-0.132757
-0.131801
-0.109561
-0.105343
-0.092469
-0.106999
-0.103361
-0.100248
-0.09496
-0.102929
-0.10308
-0.101962
-0.109775
-0.109546
-0.109518
-0.115614
-0.125432
-0.129754
-0.138145
-0.123697
-0.132596
-0.127856
-0.109133
-0.113939
-0.108137
-0.104476
-0.098707
-0.08226
-0.080085
-0.077998
-0.087095
-0.09582
-0.122694
-0.132242
-0.109218
-0.117848
-0.137248
-0.132079
-0.144065
-0.13903
-0.114075
-0.152124
-0.133978
-0.101631
-0.106694
-0.096527
-0.09375
-0.088571
-0.094494
-0.092613
-0.087514
-0.09723
-0.106722
-0.118358
-0.110042
-0.115527
-0.137579
-0.151217
-0.149229
-0.133277
-0.116012
-0.116403
-0.08143
-0.077303
-0.057869
-0.044867
-0.05598
-0.022137
-0.026733
-0.003983
0.002071
0.032875
0.073328
0.096773
0.101065
0.092982
0.120199
0.141252
0.170256
0.200573
0.246073
0.264344
0.299107
0.324002
0.344607
0.341046
0.314349
0.282049
0.265067
0.217802
0.122411
0.049689
-0.003246
-0.094769
-0.136431
-0.137958
-0.179226
-0.205524
-0.235708
-0.241065
-0.22372
-0.226086
-0.218432
-0.21927
-0.223894
-0.214941
-0.210048
-0.192113
-0.18244
-0.188915
-0.184924
-0.165394
-0.1885
-0.178413
-0.169211
-0.181801
-0.161315
-0.161623
-0.151581
-0.149204
-0.135421
-0.130169
-0.110544
-0.114091
-0.106048
-0.095437
-0.088661
-0.070681
-0.068
-0.072612
-0.080293
-0.090183
-0.096943
-0.077905
-0.085011
-0.091408
-0.10312
-0.120049
-0.108527
-0.109303
-0.109554
-0.109955
-0.103061
-0.10118
-0.082365
-0.07577
-0.067921
-0.067082
-0.047269
-0.061786
-0.064764
-0.064126
-0.06555
-0.098462
-0.099457
-0.111686
-0.111758
-0.104022
-0.110889
-0.109045
-0.102309
-0.089715
-0.086505
-0.071897
-0.074919
-0.064528
-0.066456
-0.060197
-0.058129
-0.054886
-0.069741
-0.069237
-0.077231
-0.090812
-0.087414
-0.077759
-0.087781
-0.083178
-0.112165
-0.117199
-0.092589
-0.070368
-0.063904
-0.058846
-0.061928
-0.068822
-0.06541
-0.064092
-0.046977
-0.050269
-0.059426
-0.062509
-0.070605
-0.073892
-0.073486
-0.06953
-0.087618
-0.099639
-0.09745
-0.078102
-0.084306
-0.069375
-0.068751
-0.079113
-0.069582
-0.045318
-0.04607
-0.053804
-0.051543
-0.030768
-0.049154
-0.034476
-0.056512
-0.064144
-0.065876
-0.079483
-0.079811
-0.078836
-0.087161
-0.094635
-0.074275
-0.089761
-0.080178
-0.060666
-0.067715
-0.065872
-0.059301
-0.02977
-0.031955
-0.034552
-0.038806
-0.034195
-0.025951
-0.032791
-0.074963
-0.072521
-0.069438
-0.066244
-0.090925
-0.084894
-0.080091
-0.073182
-0.070792
-0.06695
-0.054002
-0.049725
-0.043098
-0.030583
-0.024429
-0.020054
-0.014813
-0.036813
-0.037703
-0.052381
-0.044922
-0.074137
-0.073089
-0.071055
-0.059167
-0.057753
-0.059295
-0.055094
-0.048601
-0.04905
-0.037965
-0.022407
-0.025909
-0.017343
-0.012844
-0.013001
-0.010821
-0.019005
-0.031525
-0.039896
-0.029755
-0.046644
-0.054063
-0.058425
-0.05849
-0.055112
-0.042304
-0.053793
-0.048641
-0.038711
-0.029799
-0.017074
-0.007537
0.012111
0.011545
0.025373
0.016508
0.003114
-0.00359
-0.001224
-0.005575
-0.021153
-0.023864
-0.016926
-0.01972
-0.010941
-0.003302
-0.035435
-0.016307
0.007996
0.010003
0.010702
0.027455
0.011691
0.025453
0.018773
0.030535
0.018897
0.011741
0.010019
0.002089
0.003117
-0.000083
-0.013574
-0.012119
0.004998
0.003134
0.015671
0.018229
0.033005
0.035004
0.037846
0.040172
0.039663
0.055232
0.065431
0.056314
0.052706
0.050836
0.03749
0.030296
0.007877
0.000184
0.007212
0.023263
-0.004409
0.004111
0.028986
0.036677
0.042544
0.044183
0.047805
0.061741
0.065284
0.084551
0.082405
0.061613
0.059794
0.054591
0.05606
0.042401
0.020413
0.011958
0.00225
0.012355
0.016374
0.007984
0.022259
0.030983
0.0282
0.032738
0.041291
0.024045
0.035003
0.026575
0.048795
0.045909
0.041859
0.027759
0.019306
0.006684
-0.005598
-0.038188
-0.045546
-0.045666
-0.044315
-0.040666
-0.044767
-0.033713
-0.032316
-0.024716
-0.001881
-0.012508
-0.005027
-0.002894
-0.007366
-0.005654
-0.032022
-0.043884
-0.0561
-0.04239
-0.048759
-0.059401
-0.079984
-0.093159
-0.069282
-0.078792
-0.074437
-0.05304
-0.052629
-0.063844
-0.064542
-0.05546
-0.059279
-0.042907
-0.029323
-0.039497
-0.05009
-0.064695
-0.078414
-0.067681
-0.08921
-0.094735
-0.105462
-0.101856
-0.108192
-0.101583
-0.092551
-0.103407
-0.07926
-0.086179
-0.069439
-0.064248
-0.077742
-0.06895
-0.054889
-0.069946
-0.076812
-0.089065
-0.097549
-0.088131
-0.111335
-0.118927
-0.103742
-0.098947
-0.102419
-0.109125
-0.10428
-0.099385
-0.090918
-0.07367
-0.068614
-0.068971
-0.052929
-0.053778
-0.040356
-0.034763
-0.081166
-0.090227
-0.088299
-0.09184
-0.107673
-0.109591
-0.104329
-0.116235
-0.126359
-0.125044
-0.114619
-0.102889
-0.075701
-0.076103
-0.080888
-0.080557
-0.080407
-0.056232
-0.056905
-0.092421
-0.086563
-0.084179
-0.093991
-0.080748
-0.095705
-0.101901
-0.113931
-0.114627
-0.128035
-0.115775
-0.115803
-0.114019
-0.106594
-0.097736
-0.086359
-0.075729
-0.065683
-0.045164
-0.054361
-0.058651
-0.07206
-0.082278
-0.080456
-0.088342
-0.093456
-0.098055
-0.11082
-0.109374
-0.092365
-0.096452
-0.102034
-0.095793
-0.088732
-0.081529
-0.067785
-0.064373
-0.065854
-0.047037
-0.060766
-0.07244
-0.060569
-0.064791
-0.074925
-0.078918
-0.065846
-0.090947
-0.09325
-0.107033
-0.116137
-0.11392
-0.118857
-0.102901
-0.110972
-0.080283
-0.063829
-0.071558
-0.073307
-0.054614
-0.033978
-0.051924
-0.044859
-0.070888
-0.078133
-0.090893
-0.101987
-0.104701
-0.110031
-0.096514
-0.120479
-0.128534
-0.091717
-0.077723
-0.080695
-0.078287
-0.075693
-0.074145
-0.044265
-0.044625
-0.0568
-0.056936
-0.060694
-0.069266
-0.066999
-0.085067
-0.102697
-0.080725
-0.091081
-0.10045
-0.107262
-0.107029
-0.082989
-0.096097
-0.074194
-0.058606
-0.06396
-0.073587
-0.047306
-0.048879
-0.058048
-0.073264
-0.082093
-0.071244
-0.08255
-0.088125
-0.08925
-0.097806
-0.109459
-0.108672
-0.106807
-0.11745
-0.106985
-0.096504
-0.090944
-0.08457
-0.086034
-0.073558
-0.06035
-0.040628
-0.048671
-0.060376
-0.042242
-0.075248
-0.089884
-0.092859
-0.095652
-0.101116
-0.104421
-0.108796
-0.10292
-0.110474
-0.119448
-0.105645
-0.103431
-0.083071
-0.083731
-0.081667
-0.061568
-0.050292
-0.049645
-0.053449
-0.071551
-0.057155
-0.069103
-0.067001
-0.10163
-0.100603
-0.107497
-0.109983
-0.106042
-0.104932
-0.107003
-0.105343
-0.092149
-0.086965
-0.069451
-0.063788
-0.072625
-0.071162
-0.057848
-0.071685
-0.05948
-0.076062
-0.087317
-0.081963
-0.0907
-0.087193
-0.098385
-0.094693
-0.115484
-0.113089
-0.102062
-0.088426
-0.085477
-0.09555
-0.088605
-0.082556
-0.068208
-0.064052
-0.047831
-0.082953
-0.090617
-0.077513
-0.080794
-0.100627
-0.108378
-0.130959
-0.091896
-0.097679
-0.106156
-0.096633
-0.100968
-0.11406
-0.092902
-0.08832
-0.091096
-0.085489
-0.064001
-0.053905
-0.03499
-0.066464
-0.066807
-0.064459
-0.071835
-0.083535
-0.082912
-0.103788
-0.102522
-0.111985
-0.116009
-0.109051
-0.112795
-0.112214
-0.095847
-0.076232
-0.061997
-0.059907
-0.070114
-0.065405
-0.06418
-0.070114
-0.077909
-0.075177
-0.092564
-0.100797
-0.105159
-0.104779
-0.120404
-0.130628
-0.10891
-0.117701
-0.104321
-0.083942
-0.068086
-0.06268
-0.07508
-0.076056
-0.072281
-0.063312
-0.090119
-0.081918
-0.085543
-0.074069
-0.075954
-0.083749
-0.091448
-0.092015
-0.102728
-0.10216
-0.115246
-0.117914
-0.091699
-0.098033
-0.09677
-0.095874
-0.074121
-0.080489
-0.082108
-0.075697
-0.059979
-0.054795
-0.043632
-0.038041
-0.054526
-0.06577
-0.069635
-0.076046
-0.080645
-0.090992
-0.083784
-0.077455
-0.072008
-0.064736
-0.039729
-0.039373
-0.048108
-0.035609
-0.011752
-0.030868
-0.029767
-0.011713
-0.016799
-0.022555
-0.041827
-0.060279
-0.056213
-0.050944
-0.056547
-0.049455
-0.058074
-0.05519
-0.059376
-0.046743
-0.021882
-0.018105
-0.038453
-0.024606
-0.004644
0.002752
0.024807
0.016516
-0.004078
-0.023443
-0.034599
-0.033998
-0.026363
-0.043856
-0.076325
-0.080764
-0.080215
-0.07554
-0.063005
-0.06601
-0.055611
-0.046409
-0.055942
-0.045734
-0.049908
-0.029792
-0.029487
-0.038799
-0.035588
-0.053541
-0.066513
-0.072304
-0.084166
-0.093295
-0.102248
-0.10896
-0.091522
-0.093745
-0.088439
-0.08673
-0.078204
-0.078508
-0.056129
-0.052656
-0.053465
-0.026379
-0.053391
-0.074497
-0.079016
-0.072571
-0.087795
-0.090223
-0.094202
-0.100851
-0.107198
-0.132351
-0.135875
-0.132815
-0.114071
-0.113658
-0.11176
-0.103631
-0.10982
-0.095209
-0.078015
-0.073648
-0.065351
-0.066669
-0.096585
-0.082344
-0.094998
-0.111886
-0.120039
-0.124237
-0.122784
-0.123638
-0.117827
-0.134046
-0.133938
-0.130636
-0.119492
-0.112382
-0.108582
-0.087779
-0.078996
-0.074165
-0.078261
-0.078431
-0.097434
-0.097361
-0.104214
-0.116773
-0.107459
-0.112272
-0.118656
-0.120687
-0.135152
-0.149245
-0.140547
-0.141861
-0.122634
-0.12241
-0.113417
-0.103285
-0.091078
-0.089308
-0.096407
-0.07441
-0.080714
-0.088153
-0.093083
-0.105011
-0.118598
-0.123519
-0.11301
-0.134784
-0.143484
-0.13875
-0.147614
-0.132359
-0.120773
-0.120288
-0.108603
-0.087903
-0.083719
-0.0939
-0.091804
-0.089025
-0.101671
-0.091827
-0.097341
-0.09902
-0.100168
-0.125624
-0.129883
-0.142958
-0.14729
-0.148308
-0.13863
-0.132744
-0.098895
-0.119436
-0.109205
-0.089134
-0.091313
-0.090641
-0.072353
-0.060467
-0.065347
-0.074809
-0.083631
-0.070193
-0.066341
-0.06384
-0.056281
-0.063697
-0.06673
-0.047069
-0.026745
0.022172
0.085747
0.122027
0.126539
0.155648
0.180241
0.214789
0.246942
0.262239
0.283295
0.292929
0.307665
0.324438
0.334139
0.333143
0.280133
0.236328
0.204672
0.147047
0.06508
-0.021902
-0.077687
-0.130243
-0.135401
-0.140197
-0.143469
-0.160214
-0.193773
-0.193842
-0.194594
-0.210915
-0.230068
-0.208017
-0.212874
-0.226508
-0.228334
-0.242683
-0.233302
-0.225563
-0.221645
-0.200931
-0.174276
-0.163677
-0.159536
-0.14212
-0.120128
-0.095282
-0.095833
-0.088266
-0.081186
-0.078036
-0.086807
-0.09089
-0.106561
-0.114348
-0.118231
-0.131099
-0.120123
-0.114253
-0.096789
-0.106073
-0.091389
-0.089422
-0.094741
-0.093173
-0.0709
-0.06514
-0.06318
-0.058034
-0.058752
-0.07183
-0.070338
-0.069816
-0.072627
-0.079663
-0.096661
-0.113652
-0.123854
-0.113426
-0.10984
-0.107235
-0.081824
-0.080026
-0.076112
-0.063077
-0.053744
-0.045379
-0.046815
-0.050963
-0.050587
-0.056521
-0.055891
-0.073982
-0.088773
-0.099445
-0.090594
-0.090063
-0.102128
-0.11379
-0.109394
-0.087239
-0.0792
-0.060491
-0.055454
-0.060697
-0.066464
-0.058358
-0.059718
-0.05187
-0.039819
-0.051703
-0.052973
-0.065889
-0.082433
-0.08677
-0.076785
-0.086813
-0.099471
-0.08827
-0.068821
-0.082096
-0.081052
-0.08462
-0.077327
-0.065942
-0.069561
-0.053302
-0.052806
-0.03923
-0.050196
-0.057052
-0.071573
-0.073146
-0.072348
-0.07043
-0.073793
-0.074409
-0.081224
-0.081204
-0.074137
-0.067316
-0.064131
-0.064598
-0.067611
-0.048324
-0.037771
-0.036564
-0.030766
-0.020705
-0.035075
-0.046108
-0.054298
-0.049877
-0.051502
-0.052135
-0.062615
-0.060018
-0.077719
-0.069583
-0.084008
-0.073726
-0.054885
-0.056942
-0.055164
-0.048836
-0.051682
-0.037313
-0.023541
-0.018983
-0.030492
-0.022789
-0.033367
-0.036837
-0.033911
-0.05271
-0.075563
-0.070825
-0.07172
-0.084604
-0.08612
-0.070287
-0.054609
-0.058314
-0.054296
-0.021736
0.00333
-0.011506
-0.001621
0.008624
0.001615
-0.017923
-0.010916
-0.028456
-0.025667
-0.042003
-0.065992
-0.071126
-0.059812
-0.06233
-0.05575
-0.036965
-0.03957
-0.035838
-0.027737
-0.005107
-0.010156
-0.009934
0.002108
0.00126
-0.005858
-0.007881
-0.006835
-0.02942
-0.022738
-0.020403
-0.028856
-0.025673
-0.023166
-0.030124
-0.035781
-0.018221
-0.02605
-0.020626
-0.003959
0.003046
0.01317
0.017423
0.019115
0.019537
0.025626
0.015973
0.003323
-0.005621
0.013042
0.007241
0.008846
0.003636
-0.005973
-0.013253
-0.018833
-0.012002
0.000632
0.011595
0.029474
0.041893
0.055009
0.031304
0.043149
0.056335
0.042206
0.044631
0.038504
0.033665
0.037972
0.015895
-0.001329
0.004879
0.001668
0.018061
0.004155
0.008034
0.009213
0.036129
0.050197
0.051106
0.053001
0.070998
0.080959
0.074135
0.070379
0.063125
0.057435
0.049195
0.028533
0.019431
0.016827
0.028984
0.024971
0.023613
0.032493
0.043928
0.047883
0.058066
0.046032
0.051709
0.057269
0.067786
0.08599
0.089292
0.069988
0.045972
0.054918
0.04126
0.040966
0.026037
0.023689
0.003594
-0.009269
-0.008705
-0.00288
0.010385
0.010164
0.019072
0.011742
0.023315
0.02423
0.023487
0.026959
0.026185
0.020845
0.005403
0.006766
0.010004
0.00155
-0.022534
-0.038037
-0.034517
-0.019801
-0.042016
-0.049068
-0.047017
-0.038343
-0.024628
-0.030092
-0.032209
-0.027972
-0.014027
-0.016284
-0.021009
-0.015452
-0.029926
-0.03987
-0.042782
-0.065129
-0.08107
-0.080295
-0.081321
-0.0874
-0.087474
-0.084591
-0.095816
-0.084398
-0.065704
-0.056647
-0.044945
-0.037191
-0.020583
-0.031689
-0.055095
-0.036761
-0.047606
-0.042595
-0.058858
-0.067343
-0.085121
-0.083163
-0.084389
-0.097847
-0.085983
-0.087545
-0.08
-0.083456
-0.084225
-0.073516
-0.069521
-0.055379
-0.05282
-0.042563
-0.050038
-0.042269
-0.057872
-0.061753
-0.078429
-0.077781
-0.086889
-0.081823
-0.091712
-0.099193
-0.095144
-0.095799
-0.088581
-0.094561
-0.087427
-0.068348
-0.059275
-0.062712
-0.058203
-0.05164
-0.04711
-0.045603
-0.061778
-0.074234
-0.090791
-0.0676
-0.090627
-0.099444
-0.094059
-0.090229
-0.082212
-0.084291
-0.090358
-0.080632
-0.073326
-0.062481
-0.084269
-0.07182
-0.06043
-0.065192
-0.057437
-0.049659
-0.053468
-0.055764
-0.063614
-0.062549
-0.068127
-0.066864
-0.08162
-0.083033
-0.09494
-0.091401
-0.106732
-0.101775
-0.084203
-0.090682
-0.071294
-0.063328
-0.055669
-0.038525
-0.041181
-0.047395
-0.046024
-0.045589
-0.06472
-0.069294
-0.063701
-0.066863
-0.081448
-0.10863
-0.103874
-0.108556
-0.09375
-0.076365
-0.073158
-0.060357
-0.047739
-0.0336
-0.052547
-0.032377
-0.028243
-0.03861
-0.042837
-0.050298
-0.057901
-0.054321
-0.074942
-0.090567
-0.089478
-0.094582
-0.096364
-0.092873
-0.075236
-0.07336
-0.042518
-0.06477
-0.064208
-0.056355
-0.03976
-0.04664
-0.031418
-0.04087
-0.051944
-0.04733
-0.050289
-0.071347
-0.077393
-0.072851
-0.085515
-0.073203
-0.0799
-0.089424
-0.081176
-0.081115
-0.070826
-0.064126
-0.055215
-0.049719
-0.044518
-0.028697
-0.036936
-0.053584
-0.049759
-0.033834
-0.049179
-0.062285
-0.070041
-0.074077
-0.081026
-0.089826
-0.098432
-0.088267
-0.075969
-0.075591
-0.06347
-0.068509
-0.068445
-0.054525
-0.044984
-0.037458
-0.034823
-0.029224
-0.035787
-0.049698
-0.051763
-0.049522
-0.065247
-0.075223
-0.080498
-0.084823
-0.092357
-0.092942
-0.084433
-0.071025
-0.067608
-0.050549
-0.056233
-0.04328
-0.038621
-0.032826
-0.024463
-0.044756
-0.062751
-0.050388
-0.052564
-0.060952
-0.061323
-0.085362
-0.086233
-0.085326
-0.074918
-0.074283
-0.077287
-0.083393
-0.060436
-0.051179
-0.055487
-0.046929
-0.015051
-0.014693
-0.047149
-0.051779
-0.052658
-0.051306
-0.054511
-0.053047
-0.071689
-0.079281
-0.068201
-0.071161
-0.07736
-0.086282
-0.07414
-0.070272
-0.048741
-0.055639
-0.043266
-0.038629
-0.037637
-0.025875
-0.047747
-0.035577
-0.042125
-0.046887
-0.057862
-0.055799
-0.080736
-0.07094
-0.078686
-0.103041
-0.103999
-0.094747
-0.095626
-0.066066
-0.070823
-0.067817
-0.061257
-0.049565
-0.042623
-0.034784
-0.03458
-0.040652
-0.037215
-0.053566
-0.066823
-0.060685
-0.069833
-0.085988
-0.070316
-0.080431
-0.089989
-0.090134
-0.075749
-0.089186
-0.092687
-0.060928
-0.063131
-0.056673
-0.051391
-0.047151
-0.037247
-0.050228
-0.050864
-0.047974
-0.045662
-0.039953
-0.061461
-0.065158
-0.05201
-0.079496
-0.093397
-0.087049
-0.092761
-0.081162
-0.058257
-0.05878
-0.04748
-0.021577
-0.031145
-0.027159
-0.029705
-0.040592
-0.035333
-0.022685
-0.033781
-0.056534
-0.071078
-0.075805
-0.071293
-0.093658
-0.099362
-0.086406
-0.083282
-0.086868
-0.065644
-0.056841
-0.057887
-0.048604
-0.044909
-0.032342
-0.030799
-0.018044
-0.0272
-0.039607
-0.051778
-0.047231
-0.047523
-0.059467
-0.057566
-0.072028
-0.070973
-0.060588
-0.043925
-0.023409
-0.026626
-0.030888
-0.010045
0.00107
0.012032
-0.004277
0.001446
0.009407
-0.007422
-0.002362
0.004776
-0.01531
-0.021795
-0.030672
-0.03727
-0.027501
-0.037718
-0.025798
-0.021257
-0.012173
-0.008866
0.000393
0.002002
0.005217
-0.000169
0.019931
0.041528
0.038614
0.029892
0.028053
0.017552
0.008335
-0.001993
-0.010521
-0.008364
-0.024571
-0.035428
-0.033742
-0.028031
-0.023809
-0.005141
-0.002646
-0.003456
-0.01644
-0.014545
-0.003582
0.004904
-0.014718
-0.013505
-0.004982
-0.028126
-0.035043
-0.039059
-0.055874
-0.071853
-0.061395
-0.076796
-0.079103
-0.074573
-0.064144
-0.046201
-0.046947
-0.037814
-0.042303
-0.036613
-0.024631
-0.005741
-0.004819
-0.03979
-0.033946
-0.049593
-0.061981
-0.048791
-0.070353
-0.098506
-0.09811
-0.0913
-0.101928
-0.091676
-0.077246
-0.051202
-0.081924
-0.079018
-0.066924
-0.050794
-0.047171
-0.046584
-0.055492
-0.056706
-0.066391
-0.056057
-0.067176
-0.075225
-0.082214
-0.101973
-0.090198
-0.090186
-0.098626
-0.080333
-0.086123
-0.085642
-0.082605
-0.067389
-0.071992
-0.071742
-0.069594
-0.05285
-0.025931
-0.028865
-0.069257
-0.084985
-0.082286
-0.084906
-0.106896
-0.116281
-0.09743
-0.089343
-0.075191
-0.0869
-0.076149
-0.084056
-0.074586
-0.071029
-0.061095
-0.050002
-0.047636
-0.045919
-0.045477
-0.044601
-0.06278
-0.063335
-0.08281
-0.066132
-0.068609
-0.07526
-0.099908
-0.100812
-0.089607
-0.093723
-0.078486
-0.085171
-0.09048
-0.083475
-0.072955
-0.061091
-0.042541
-0.034801
-0.033459
-0.055527
-0.069029
-0.07107
-0.073935
-0.074889
-0.0751
-0.074393
-0.085497
-0.098928
-0.098863
-0.093247
-0.079447
-0.076863
-0.075581
-0.058552
-0.053537
-0.037482
-0.036602
-0.030562
-0.037918
-0.011268
0.006721
-0.003664
-0.035483
-0.028135
-0.029054
-0.033359
-0.020862
0.009946
0.009229
0.04593
0.088814
0.132042
0.154864
0.168669
0.195101
0.232488
0.260071
0.296671
0.320355
0.342697
0.349056
0.380783
0.372486
0.36155
0.30867
0.277417
0.234095
0.16025
0.098763
0.014398
-0.019993
-0.07783
-0.083171
-0.100518
-0.102465
-0.143421
-0.149064
-0.147284
-0.132809
-0.148328
-0.159894
-0.176739
-0.183097
-0.191244
-0.192444
-0.187479
-0.172681
-0.185066
-0.179949
-0.163236
-0.15741
-0.132996
-0.101133
-0.099084
-0.076306
-0.061309
-0.057416
-0.06436
-0.038966
-0.024762
-0.049096
-0.047855
-0.05343
-0.045192
-0.07268
-0.075253
-0.07155
-0.081458
-0.060021
-0.061705
-0.07206
-0.06416
-0.048716
-0.045937
-0.03582
-0.027215
-0.015295
-0.005661
-0.026987
-0.019251
-0.028586
-0.024296
-0.040773
-0.050898
-0.059588
-0.062917
-0.059691
-0.071406
-0.072809
-0.053616
-0.060494
-0.045935
-0.033633
-0.021032
-0.022807
-0.025121
-0.026198
-0.014188
-0.026934
-0.015577
-0.015642
-0.0279
-0.028538
-0.032262
-0.042052
-0.047129
-0.057159
-0.04862
-0.056277
-0.071579
-0.051226
-0.03642
-0.02802
-0.028007
-0.025995
-0.024361
-0.031883
-0.00991
-0.010289
-0.00442
-0.020794
-0.001161
-0.015503
-0.023043
-0.035032
-0.033389
-0.047748
-0.052826
-0.042078
-0.043506
-0.033105
-0.018567
-0.007447
-0.023202
-0.014835
-0.010557
-0.002754
0.016942
0.008198
-0.001626
0.011339
-0.013666
-0.025634
-0.014906
-0.027436
-0.02041
-0.034127
-0.052292
-0.05424
-0.062465
-0.038684
-0.031627
-0.0267
-0.030558
-0.016162
-0.022775
-0.007177
-0.00165
0.03086
0.023008
0.012696
0.006154
-0.012495
-0.026
-0.027726
-0.027114
-0.044017
-0.034308
-0.023202
-0.017717
-0.037745
-0.033278
-0.003343
-0.006745
-0.010081
-0.000807
0.017394
0.020117
-0.004698
0.006104
0.006911
0.010062
0.002099
0.013008
0.007931
-0.020898
-0.011494
-0.020959
-0.027967
-0.012516
-0.006336
-0.009477
0.011888
-0.000851
0.011278
0.005045
0.010206
0.032511
0.029841
0.023774
0.007269
-0.00264
-0.008524
0.000292
0.023421
0.032335
0.012753
0.000783
-0.01176
-0.008598
-0.013652
-0.00524
0.016405
0.024111
0.029861
0.049048
0.074018
0.057537
0.056301
0.051512
0.04115
0.034431
0.02781
0.029124
0.031178
0.025103
0.010683
0.011188
0.012578
0.010138
0.016836
0.010346
0.02852
0.059298
0.06093
0.067513
0.066806
0.085344
0.067927
0.063911
0.073598
0.07363
0.048289
0.046661
0.039556
0.045032
0.048486
0.037327
0.034861
0.045189
0.045437
0.053288
0.042726
0.045855
0.065411
0.07558
0.076698
0.082421
0.095153
0.109962
0.106438
0.115417
0.102729
0.078393
0.066571
0.08555
0.077984
0.056011
0.052121
0.062872
0.059298
0.062096
0.074
0.095925
0.099564
0.105542
0.112656
0.107905
0.122053
0.111425
0.104495
0.10841
0.103357
0.08904
0.089903
0.097056
0.089434
0.070816
0.076857
0.093486
0.102029
0.072715
0.077054
0.091416
0.107725
0.111447
0.110415
0.131065
0.119874
0.118448
0.108332
0.074784
0.063872
0.084612
0.08467
0.06574
0.067248
0.062856
0.052808
0.051869
0.054844
0.037578
0.047813
0.060395
0.06828
0.069747
0.066538
0.071076
0.069434
0.063952
0.043029
0.047857
0.046321
0.034968
0.018792
0.014495
0.002961
-0.003324
0.001836
0.006542
0.003555
0.003773
0.007838
0.001542
0.01927
0.0158
0.031592
0.04132
0.0325
0.031355
0.035069
0.002622
-0.000789
-0.02176
-0.037165
-0.048955
-0.030782
-0.02512
-0.048715
-0.033045
-0.015009
-0.015534
-0.006798
-0.006099
0.002922
0.001809
0.014438
0.029887
0.035259
0.021283
0.005185
-0.009087
-0.005155
-0.030133
-0.025204
-0.038382
-0.042371
-0.048129
-0.051818
-0.02628
-0.041501
-0.040065
-0.014447
-0.025395
-0.010112
-0.004569
-0.001153
0.000074
-0.004872
-0.00311
-0.00236
-0.013309
-0.010329
-0.014096
-0.030868
-0.038382
-0.035721
-0.042636
-0.043122
-0.04307
-0.034547
-0.043952
-0.028294
-0.017603
-0.030387
-0.011304
-0.01315
-0.012632
-0.001216
-0.000824
-0.004849
-0.009917
-0.02109
-0.029078
-0.041366
-0.042339
-0.055991
-0.034069
-0.066169
-0.062827
-0.045192
-0.042218
-0.031872
-0.028091
-0.021588
-0.023311
-0.010725
-0.007819
-0.004895
0.007274
0.005269
-0.020275
-0.036174
-0.021374
-0.02932
-0.037634
-0.054922
-0.054233
-0.060878
-0.053174
-0.030838
-0.0348
-0.011475
-0.036374
-0.03853
-0.012972
-0.001205
0.003071
0.000002
0.00302
0.011431
-0.004332
-0.00422
-0.008083
-0.02008
-0.024849
-0.026145
-0.048816
-0.051941
-0.043574
-0.043856
-0.045281
-0.025821
-0.005213
-0.0199
-0.012726
-0.009397
0.010433
0.010265
0.005924
0.014886
0.009328
-0.005161
-0.014819
-0.025763
-0.030038
-0.026273
-0.029789
-0.040443
-0.043303
-0.033298
-0.017288
-0.025269
-0.028845
-0.017665
-0.006014
-0.000084
-0.000877
0.021657
0.023687
0.000322
-0.001971
0.00068
-0.005891
-0.027287
-0.03287
-0.031114
-0.048269
-0.045836
-0.04677
-0.042386
-0.046068
-0.021019
-0.020241
-0.016043
0.008859
-0.007544
0.003332
0.005731
-0.008728
0.002682
-0.00848
-0.015541
-0.006559
-0.009786
-0.017413
-0.018959
-0.032453
-0.037481
-0.0507
-0.051482
-0.038006
-0.020098
-0.015689
-0.006749
0.005953
-0.0121
-0.012235
0.016851
0.016099
-0.011382
0.002215
0.007049
-0.007754
-0.012275
-0.019708
-0.040577
-0.051626
-0.060305
-0.059857
-0.037976
-0.027618
-0.013863
-0.009966
-0.00696
-0.000603
0.010842
0.011215
0.015729
0.012813
0.012289
0.002348
0.000754
-0.012727
-0.014651
-0.021087
-0.015679
-0.0262
-0.040806
-0.043557
-0.026114
-0.008455
-0.026382
-0.026629
-0.007045
0.002019
-0.001188
0.001796
0.001551
0.010928
0.000149
-0.012914
-0.020276
-0.020336
-0.034182
-0.033146
-0.067063
-0.057518
-0.051102
-0.030065
-0.02547
-0.012092
-0.016012
-0.007022
-0.004537
-0.006502
-0.002266
0.009819
0.009845
-0.001588
-0.002356
0.003473
-0.010499
-0.018986
-0.014984
-0.025591
-0.034818
-0.049672
-0.029388
-0.030978
-0.031416
-0.025446
-0.007876
-0.023011
-0.025123
-0.010972
0.002522
0.014174
0.014915
0.004563
-0.006644
-0.025511
-0.026689
-0.019747
-0.026042
-0.025798
-0.028013
-0.037872
-0.035615
-0.032843
-0.031045
-0.034239
-0.025809
-0.027227
-0.019571
-0.016045
-0.007674
0.001328
0.016461
0.018434
0.01084
0.003936
-0.0148
-0.002958
0.000359
-0.01923
-0.031543
-0.034763
-0.011421
-0.019814
-0.020674
-0.028003
-0.025581
-0.006979
0.00049
0.004498
0.005692
0.025022
0.036998
0.030734
0.040124
0.050173
0.033695
0.015873
0.025729
0.013702
0.002842
0.006213
0.009817
0.01424
0.009609
0.018703
0.030445
0.046732
0.047206
0.049824
0.03975
0.036671
0.064146
0.040873
0.047502
0.049609
0.040235
0.033801
0.022514
0.030392
0.031233
0.031142
0.032356
0.017595
0.030358
0.040903
0.033351
0.040018
0.056036
0.066269
0.062253
0.059745
0.057891
0.045425
0.052904
0.064139
0.02787
0.019186
0.025473
0.011525
0.017097
0.013125
0.006193
0.015581
0.014349
0.007308
0.003892
0.012265
-0.001086
0.003646
0.012523
0.019356
0.019749
0.013152
0.027357
0.023203
-0.002377
-0.009094
-0.02436
-0.031412
-0.035315
-0.030474
-0.039476
-0.040872
-0.021683
-0.022399
-0.01626
-0.011268
-0.005609
-0.00189
-0.015394
-0.012052
-0.010402
-0.000729
-0.000377
-0.005335
-0.015988
-0.034128
-0.027969
-0.040711
-0.04682
-0.044636
-0.049281
-0.055128
-0.054018
-0.053574
-0.039756
-0.025763
-0.019753
-0.021054
-0.013499
-0.01516
-0.01171
-0.008154
-0.004616
-0.024034
-0.017712
-0.039029
-0.046441
-0.056485
-0.057634
-0.050586
-0.041752
-0.052493
-0.054682
-0.05387
-0.043685
-0.03615
-0.034643
-0.024786
-0.011584
-0.020861
-0.015612
-0.013926
-0.017685
-0.033753
-0.024702
-0.024834
-0.022307
-0.046002
-0.039573
-0.060121
-0.080605
-0.067913
-0.071866
-0.057875
-0.054306
-0.046673
-0.040563
-0.028218
-0.014198
-0.004489
-0.022847
-0.01338
-0.018865
-0.021934
-0.033141
-0.041531
-0.031844
-0.040504
-0.052548
-0.053017
-0.081907
-0.074112
-0.063419
-0.054767
-0.062868
-0.052417
-0.052692
-0.03318
-0.015459
-0.024798
-0.01987
-0.025278
-0.018404
-0.024842
-0.031751
-0.028842
-0.034611
-0.045117
-0.052087
-0.061581
-0.064656
-0.064404
-0.05481
-0.030921
-0.024879
0.014045
0.000664
-0.003575
0.011575
0.017243
0.030919
0.054172
0.05487
0.072428
0.092153
0.092962
0.132811
0.148758
0.142999
0.173763
0.197402
0.196714
0.219145
0.268291
0.30137
0.335851
0.354981
0.377063
0.382481
0.413781
0.410015
0.365814
0.3395
0.296768
0.214698
0.141424
0.081832
-0.01957
-0.064037
-0.088371
-0.097656
-0.120316
-0.130558
-0.143742
-0.138154
-0.142128
-0.126163
-0.111455
-0.123862
-0.15199
-0.131768
-0.124033
-0.129032
-0.112632
-0.103029
-0.108325
-0.099884
-0.095998
-0.096995
-0.091788
-0.092903
-0.083108
-0.060817
-0.064519
-0.05551
-0.032161
-0.040329
-0.030134
-0.001362
0.005979
0.007289
-0.003458
0.001744
-0.009911
-0.021068
-0.022836
-0.008474
-0.00543
-0.030843
-0.034846
-0.035493
-0.05037
-0.043293
-0.027823
-0.01978
-0.009036
0.007195
-0.015161
-0.000616
0.007983
0.002857
0.015429
0.022939
0.008772
-0.00212
-0.009411
-0.015271
-0.028256
-0.022963
-0.025839
-0.034068
-0.03374
-0.023885
-0.02028
-0.0239
0.005834
0.017015
0.025536
0.013231
0.014147
0.025914
0.030488
0.022323
0.019115
0.018243
-0.001252
0.005577
-0.01304
-0.020243
-0.011487
-0.018925
-0.030852
-0.029136
-0.014529
-0.030002
-0.024226
-0.017123
-0.000622
0.013702
0.019752
0.02604
0.045816
0.038272
0.036629
0.025557
0.014242
0.019677
0.007436
-0.001492
-0.024083
-0.026078
-0.021065
-0.022609
-0.021275
-0.016181
-0.000798
0.005695
0.009322
0.030494
0.014751
0.021747
0.028078
0.04872
0.036033
0.037519
0.03011
0.01369
0.01851
-0.008085
-0.016529
-0.030795
-0.016664
-0.008292
-0.000903
-0.000498
0.004666
0.008379
0.0159
0.022101
0.019941
0.02932
0.043788
0.042846
0.02943
0.029573
0.024654
0.030432
0.011582
0.015535
0.009964
-0.002856
0.002792
0.004949
0.021279
0.006087
0.018104
0.019159
0.031094
0.022074
0.02239
0.046927
0.062652
0.091473
0.05795
0.035509
0.014919
0.026113
0.012779
0.007161
0.008351
0.027053
-0.001479
0.003096
0.020788
0.020034
0.029376
0.03748
0.044492
0.062072
0.063204
0.06744
0.070356
0.055964
0.059565
0.055382
0.03753
0.024865
0.027434
0.033922
0.01806
0.012622
0.019417
0.027368
0.030436
0.05079
0.044393
0.038908
0.056841
0.047101
0.056963
0.078633
0.087532
0.076794
0.060391
0.056529
0.053833
0.061021
0.041883
0.037277
0.045312
0.044696
0.033259
0.033448
0.052688
0.051596
0.075793
0.082696
0.095998
0.093525
0.101558
0.121413
0.136841
0.113092
0.079757
0.085883
0.082977
0.099625
0.097047
0.075553
0.05494
0.063482
0.069433
0.07074
0.081739
0.104189
0.085127
0.083564
0.101253
0.110137
0.120554
0.125971
0.124577
0.119109
0.11931
0.118341
0.114962
0.108423
0.104221
0.103149
0.098798
0.079672
0.07894
0.091011
0.09608
0.087644
0.120212
0.126327
0.113918
0.122201
0.134665
0.135219
0.138307
0.15183
0.139453
0.131192
0.122695
0.144055
0.127134
0.103732
0.098294
0.088711
0.079739
0.078997
0.079414
0.089393
0.135469
0.112275
0.103611
0.126243
0.118169
0.111809
0.110818
0.110241
0.103444
0.086705
0.098643
0.08754
0.080034
0.060769
0.052433
0.05454
0.038554
0.049264
0.045957
0.051551
0.058146
0.046931
0.055097
0.05603
0.064931
0.085435
0.080143
0.070008
0.062183
0.060026
0.049593
0.026945
0.033284
0.024154
0.00848
0.003631
0.002464
0.006276
0.000768
-0.001637
0.016917
0.039056
0.030355
0.024227
0.016154
0.032798
0.034634
0.033139
0.023736
0.029081
0.01114
0.01101
-0.005798
-0.01636
-0.029982
-0.015649
-0.011374
-0.011247
-0.02042
-0.010683
0.003115
0.001741
0.011417
0.014446
0.017745
0.019176
0.0254
0.025953
0.016484
0.012064
-0.002735
-0.009703
-0.007987
-0.023394
-0.035892
-0.039594
-0.019921
-0.024788
-0.026973
-0.025992
-0.010463
-0.006552
-0.01336
-0.000544
0.011969
0.013889
0.01544
0.018356
0.025402
0.01663
-0.004088
-0.002431
-0.012017
-0.013082
-0.015778
-0.028627
-0.025858
-0.04141
-0.053871
-0.036802
-0.017094
-0.020015
-0.020146
-0.007616
0.002832
0.019443
0.039071
0.011326
0.003866
0.009576
0.004462
-0.003044
-0.003039
-0.013718
-0.00451
-0.033569
-0.050574
-0.039625
-0.04521
-0.02871
-0.023571
-0.014378
0.002018
0.01189
0.014252
0.018437
0.01507
0.02015
0.023662
0.015014
0.002837
-0.018412
-0.018489
-0.013519
-0.02165
-0.015932
-0.025742
-0.021385
-0.008221
-0.014457
-0.010966
-0.006844
-0.003124
0.00477
0.019359
0.01561
0.027685
0.034805
0.034808
0.005664
0.001182
0.000915
0.008775
0.001054
0.001635
-0.018199
-0.030428
-0.019668
-0.028598
-0.010751
0.008689
0.003351
-0.000159
0.00751
0.005016
0.001778
0.012343
0.015578
0.031268
0.018195
0.015896
0.017795
0.008312
-0.002438
-0.012866
-0.029383
-0.022602
-0.01749
-0.014524
-0.004849
-0.008058
-0.001366
-0.0124
0.001351
0.001526
0.016373
0.033698
0.042421
0.021486
0.018342
0.015601
0.000297
-0.009492
-0.015563
-0.013722
-0.014686
-0.014732
-0.011263
-0.016511
-0.02174
-0.013784
-0.011444
-0.007966
0.003174
0.01645
0.017513
0.025721
0.01688
0.020203
0.02921
0.014974
0.016674
-0.00013
-0.004703
-0.006732
-0.021923
-0.030287
-0.021607
-0.027995
-0.007844
0.000946
0.004699
-0.014424
0.005917
0.015641
0.01263
0.018852
0.030714
0.03946
0.024446
0.010825
0.003741
-0.009149
-0.014527
-0.025774
-0.030261
-0.019538
-0.028021
-0.026714
-0.010858
-0.021843
-0.016148
-0.011013
-0.003772
-0.005697
0.024637
0.023398
0.020262
0.014969
0.018615
0.005643
-0.004147
0.000748
0.020895
0.006248
-0.009781
-0.023507
-0.033515
-0.030933
-0.010783
-0.00979
0.003038
0.011575
0.018676
0.028382
0.034013
0.026887
0.020248
0.025755
0.019165
0.008443
-0.013169
-0.000917
-0.000906
-0.011008
0.004391
-0.021159
-0.030479
-0.026521
-0.027588
-0.015207
0.002667
-0.003637
0.002979
0.010147
0.020676
0.046101
0.023201
0.014362
0.012737
0.010376
0.002521
0.01723
-0.011534
-0.024753
-0.023175
-0.031901
-0.029284
-0.04281
-0.02268
-0.0213
0.003199
0.00885
0.011348
0.015488
0.032792
0.023826
0.030551
0.023563
0.015677
0.018702
0.00251
-0.002612
-0.012789
-0.0074
0.001664
-0.019597
-0.005686
0.000844
0.008599
0.000058
0.033224
0.041437
0.053104
0.038295
0.048853
0.057747
0.05933
0.06279
0.057432
0.064728
0.030265
0.02041
0.015528
0.029728
0.036725
0.043299
0.033163
0.042452
0.034839
0.019105
0.041375
0.057939
0.069151
0.079881
0.081721
0.097336
0.096883
0.090103
0.083746
0.072924
0.068957
0.055358
0.055002
0.044637
0.034825
0.036884
0.028818
0.045119
0.05828
0.054872
0.043792
0.051501
0.051074
0.062803
0.054488
0.059252
0.059036
0.055542
0.035181
0.03673
0.037452
0.032546
0.02654
0.015727
0.00288
0.001917
-0.004353
-0.004337
0.005113
-0.000084
0.004236
0.000318
0.001909
0.013006
0.016884
0.02506
0.028436
0.029176
0.010717
0.014468
-0.006748
-0.022348
-0.028655
-0.02495
-0.027265
-0.028379
-0.016229
-0.011767
-0.014669
-0.018602
-0.017503
-0.01108
0.006207
-0.007523
-0.005131
0.000621
0.001874
0.003957
-0.014668
-0.009331
-0.011447
-0.002173
-0.035664
-0.051916
-0.037791
-0.051873
-0.071175
-0.051374
-0.015736
-0.018699
-0.030416
-0.028035
-0.009693
-0.004716
0.003578
-0.006145
0.000025
-0.007188
-0.006367
0.000981
-0.022977
-0.024473
-0.032614
-0.035594
-0.034018
-0.046794
-0.048802
-0.045833
-0.033746
-0.047361
-0.022385
-0.02402
-0.020805
-0.019385
-0.024578
-0.016532
-0.004475
0.008334
-0.010266
-0.007986
-0.02911
-0.037571
-0.039382
-0.036724
-0.036984
-0.033634
-0.047214
-0.045291
-0.02519
-0.03267
-0.011709
0.005669
-0.001778
-0.013032
-0.009631
0.00383
0.005765
-0.005062
-0.019586
-0.021796
-0.040393
-0.024257
-0.049732
-0.036845
-0.041873
-0.04485
-0.025741
-0.036667
-0.030051
-0.03915
-0.036159
-0.004757
-0.008736
-0.004447
-0.020996
0.003006
0.008261
0.007694
-0.014407
-0.017549
-0.014903
-0.015764
0.000618
-0.019748
-0.004279
-0.006198
-0.005463
0.00359
0.014217
0.011586
0.05764
0.096038
0.114609
0.155818
0.187107
0.231478
0.253392
0.249516
0.258523
0.284011
0.311136
0.324142
0.331585
0.35308
0.375571
0.382489
0.389694
0.376273
0.331597
0.311179
0.276495
0.18083
0.101299
0.068003
-0.005085
-0.016052
-0.03447
-0.044053
-0.074739
-0.095586
-0.120855
-0.131407
-0.137433
-0.1648
-0.153817
-0.156278
-0.154745
-0.157858
-0.151879
-0.146508
-0.127855
-0.113019
-0.086571
-0.061983
-0.072549
-0.051516
-0.036652
-0.037515
-0.019931
-0.025683
-0.032002
-0.031844
-0.029028
-0.038136
-0.035208
-0.046241
-0.041168
-0.054122
-0.036445
-0.031096
-0.015126
-0.000624
0.001902
0.011443
0.01503
0.033806
0.024684
0.03304
0.037636
0.026216
-0.01616
-0.019043
-0.012395
-0.008775
-0.002599
-0.027688
-0.019524
-0.02009
-0.048372
-0.02846
-0.005392
0.004086
-0.000916
0.016985
0.020419
0.011604
0.006512
0.015633
0.013046
0.00407
0.009447
0.007948
0.007973
-0.013384
-0.002386
-0.008158
-0.028768
-0.021743
-0.02521
-0.009783
0.003185
0.003791
0.003071
0.018916
0.01977
0.027468
0.017911
0.025837
0.023133
0.038609
0.019819
0.005852
0.009134
-0.006847
-0.008007
-0.014113
-0.014598
-0.012258
0.000209
-0.010125
0.003722
0.00613
0.002129
0.014755
0.021977
0.039135
0.036344
0.037977
0.033355
0.041859
0.033762
0.005161
0.016515
0.020914
0.020327
0.008248
-0.005736
-0.000056
-0.008044
-0.005561
0.012168
0.029936
0.032204
0.029355
0.035216
0.045253
0.04804
0.045327
0.040636
0.026195
0.012099
0.019071
0.022313
0.012393
0.001896
-0.003206
-0.007184
-0.009434
-0.013589
0.009653
0.008088
0.013514
0.027516
0.043167
0.037665
0.053905
0.068076
0.058218
0.056977
0.050314
0.035406
0.017233
0.017987
-0.006997
0.005566
0.005462
0.011133
0.011943
0.032212
0.028471
0.013942
0.041933
0.048611
0.048553
0.05145
0.064794
0.068808
0.053028
0.064275
0.059663
0.048575
0.033617
0.036809
0.045915
0.047778
0.022945
0.015387
0.02861
0.034895
0.038902
0.026461
0.03702
0.045506
0.070641
0.065779
0.078943
0.081062
0.068413
0.069879
0.070864
0.049541
0.044245
0.046927
0.042764
0.045705
0.033536
0.025766
0.048347
0.034354
0.037225
0.054777
0.072212
0.082296
0.084187
0.09658
0.106644
0.096734
0.105813
0.109799
0.09919
0.091972
0.084641
0.079526
0.071568
0.061877
0.073461
0.054092
0.05034
0.063555
0.077148
0.092829
0.107108
0.102586
0.114174
0.107583
0.123401
0.127832
0.12141
0.117034
0.123941
0.117254
0.111068
0.113727
0.093037
0.088691
0.077085
0.082521
0.075997
0.084431
0.093842
0.103609
0.126297
0.101292
0.112428
0.128179
0.147192
0.149157
0.144776
0.141287
0.145238
0.126017
0.11227
0.10953
0.112235
0.096001
0.105805
0.103653
0.102923
0.124357
0.123272
0.129083
0.125567
0.116878
0.136394
0.151584
0.160731
0.150607
0.131477
0.138494
0.137989
0.141751
0.117255
0.101747
0.09684
0.085135
0.09788
0.072312
0.066409
0.07814
0.087346
0.084824
0.094476
0.093405
0.096845
0.105819
0.094603
0.095798
0.092722
0.102051
0.099267
0.069006
0.057195
0.072496
0.054096
0.041258
0.022908
0.028776
0.028949
0.042595
0.028044
0.033163
0.04136
0.048412
0.04718
0.044689
0.041367
0.058734
0.059435
0.053416
0.052317
0.045679
0.031511
0.025426
0.010933
-0.001972
0.00329
-0.013243
-0.011939
-0.012532
-0.005977
0.014053
0.00486
-0.007639
0.002777
0.014979
0.04599
0.035504
0.022225
0.035626
0.011037
0.007011
0.002332
-0.009746
-0.02656
-0.023485
-0.011464
-0.022
-0.020647
-0.021768
-0.027414
-0.018565
-0.00329
0.005528
0.003479
0.008506
0.011604
0.031353
0.018458
0.023923
0.045663
0.000347
-0.015086
-0.0017
-0.040062
-0.01286
-0.013848
-0.046893
-0.035519
-0.037408
-0.023552
-0.011828
-0.002603
-0.001437
-0.002941
-0.008868
0.003134
0.012344
0.003097
0.017692
0.008355
-0.006493
-0.024696
-0.02789
-0.041481
-0.045053
-0.038706
-0.042453
-0.041846
-0.021566
-0.020671
-0.02144
-0.010012
-0.004215
0.02686
0.012679
0.01901
0.02185
0.021101
0.018872
0.024036
0.010808
0.010593
0.005933
-0.009431
-0.007613
-0.007464
-0.041716
-0.037256
-0.043964
-0.031967
-0.015339
-0.001762
0.004789
0.001044
0.004151
-0.007092
0.005877
0.009182
0.018317
0.010524
0.008539
0.00374
0.00743
-0.008349
-0.041585
-0.036212
-0.043798
-0.022158
-0.028462
-0.022399
-0.027274
-0.011866
-0.000741
0.015775
0.022375
0.023153
0.039434
0.021834
0.011283
0.008114
0.010629
0.008384
0.00585
-0.012296
-0.015592
-0.018025
-0.016981
-0.026329
-0.030865
-0.014284
-0.019975
-0.018075
-0.013034
-0.006705
-0.005638
0.014939
0.029094
0.024943
0.014891
0.01319
0.015804
-0.014668
-0.017449
-0.013702
-0.042628
-0.03235
-0.038892
-0.034385
-0.027039
-0.017403
-0.012391
-0.010172
0.009441
0.003364
0.008285
0.033259
0.038899
0.002307
0.002519
0.009271
0.014545
0.00965
-0.007637
-0.012336
-0.018144
-0.029529
-0.043654
-0.021248
-0.023515
-0.00561
-0.009123
-0.012643
-0.012387
-0.010018
0.001689
0.005061
0.020431
0.009494
0.023241
0.01887
-0.000514
-0.009403
-0.011924
-0.024649
-0.040891
-0.033944
-0.027332
-0.02331
-0.010858
-0.00851
-0.015105
-0.008607
-0.000093
-0.006145
0.016561
0.009154
0.01559
0.031425
0.019556
0.013107
-0.002739
-0.010765
-0.006306
-0.006395
-0.006084
-0.018435
-0.032514
-0.03143
-0.022942
-0.008343
-0.013831
-0.024077
0.000257
-0.006519
-0.009817
0.0038
0.014793
0.015743
0.002613
-0.006353
0.003254
-0.013794
0.007112
-0.012557
-0.014111
-0.008793
-0.020125
-0.031557
-0.018419
-0.02908
-0.04055
-0.019775
-0.002786
0.000684
0.002883
0.00198
0.011942
0.02209
0.007361
-0.003954
0.010591
0.009114
-0.010309
-0.024285
-0.018363
-0.032419
-0.045466
-0.032984
-0.040709
-0.040131
-0.048893
-0.038746
-0.034218
-0.013089
-0.017362
0.003427
0.029964
0.013753
0.009877
0.004907
-0.003444
0.00312
-0.010521
-0.010373
-0.021226
-0.024655
-0.02869
-0.041407
-0.032552
-0.027351
-0.027138
-0.003508
-0.019915
-0.012501
0.011683
0.011895
0.001184
0.005546
0.001838
-0.001218
-0.011834
-0.008259
-0.019042
-0.036933
-0.024758
-0.028018
-0.036655
-0.033935
-0.03565
-0.013731
-0.019254
0.004216
-0.008488
-0.024103
-0.013654
-0.001865
0.021454
0.014423
0.022903
0.012799
0.024896
0.017626
0.006124
-0.008701
-0.003324
-0.007379
-0.011372
-0.006728
0.000872
-0.004356
0.005618
0.008882
0.021448
0.029783
0.02878
0.020642
0.041066
0.048887
0.046567
0.053782
0.03446
0.025512
0.021364
0.022692
0.020531
0.002851
-0.010687
-0.001994
0.000102
0.019074
0.019828
0.033917
0.054109
0.051398
0.069116
0.077234
0.103617
0.108356
0.094725
0.071277
0.058261
0.049222
0.04027
0.048338
0.016831
0.022038
0.01809
0.020601
0.0296
0.016303
0.018395
0.03032
0.035604
0.037361
0.042853
0.043009
0.035927
0.057036
0.066101
0.046069
0.055968
0.040714
0.003457
-0.014207
-0.015202
-0.024273
-0.03152
-0.035782
-0.018879
-0.0132
-0.013106
-0.011077
-0.009325
0.004878
0.005848
0.004945
0.012409
0.016285
0.010703
0.008807
0.006403
-0.0174
-0.013857
-0.020604
-0.026257
-0.038691
-0.04818
-0.040701
-0.04516
-0.027926
-0.028206
-0.027717
-0.020073
-0.019249
-0.017956
-0.013957
-0.006555
-0.007025
-0.007771
-0.014741
-0.023246
-0.029729
-0.03297
-0.024579
-0.034604
-0.052721
-0.070488
-0.070575
-0.07025
-0.074382
-0.057481
-0.055646
-0.048538
-0.038625
-0.02463
-0.016442
-0.013252
-0.011776
-0.006581
-0.014571
-0.019423
-0.040136
-0.049483
-0.062939
-0.062266
-0.069135
-0.065097
-0.061291
-0.068008
-0.053749
-0.043887
-0.044307
-0.027999
-0.025227
-0.034979
-0.013515
-0.011965
-0.0148
-0.024243
-0.016943
-0.026964
-0.043446
-0.058666
-0.041956
-0.046721
-0.074506
-0.059358
-0.071844
-0.070172
-0.05443
-0.054946
-0.041314
-0.029131
-0.029556
-0.016124
-0.014335
-0.003779
-0.023187
-0.010134
-0.020556
-0.039329
-0.043839
-0.051992
-0.057521
-0.0687
-0.060371
-0.060282
-0.066258
-0.06114
-0.076701
-0.055172
-0.053051
-0.036309
-0.032293
-0.034584
-0.029829
-0.009065
-0.009173
-0.010662
-0.019753
-0.019823
-0.012751
-0.015406
-0.0141
-0.003343
-0.003083
-0.021487
-0.013527
-0.005181
0.007827
0.031646
0.068215
0.110583
0.148564
0.189259
0.214104
0.228451
0.25393
0.28078
0.309948
0.320298
0.354976
0.341683
0.351495
0.366271
0.366518
0.363766
0.326357
0.302636
0.270247
0.205046
0.143181
0.068972
0.014838
-0.04985
-0.050651
-0.060625
-0.067401
-0.098513
-0.124471
-0.133871
-0.145343
-0.153758
-0.143486
-0.15798
-0.166901
-0.184022
-0.190373
-0.191961
-0.179223
-0.148147
-0.126327
-0.114326
-0.094261
-0.070596
-0.069281
-0.058147
-0.049817
-0.043678
-0.038047
-0.045083
-0.043411
-0.031238
-0.035952
-0.051807
-0.052187
-0.053549
-0.060074
-0.073497
-0.06225
-0.040524
-0.02441
-0.027044
-0.016931
-0.005888
-0.001399
-0.00099
0.005023
-0.003458
0.002446
-0.012495
-0.01171
-0.017487
-0.044163
-0.034829
-0.025952
-0.0369
-0.03741
-0.031245
-0.049149
-0.02849
-0.025616
-0.043518
-0.028599
-0.009273
-0.00698
-0.009188
0.002859
-0.016022
-0.002491
-0.002021
-0.022711
-0.030301
-0.020839
-0.019208
-0.016721
-0.012802
-0.019619
-0.039196
-0.042425
-0.028949
-0.025547
-0.015968
-0.010169
0.000705
0.007863
0.015991
0.015472
0.014653
0.01902
0.01855
0.004938
-0.001604
-0.014075
-0.018936
-0.023322
-0.028749
-0.024554
-0.017003
-0.031575
-0.023347
-0.0017
0.006381
0.00329
0.007815
0.015088
0.028679
0.015766
0.042935
0.008895
0.011456
0.00765
-0.001147
-0.009862
-0.029007
-0.020264
-0.017765
-0.03389
-0.028259
-0.01869
-0.01481
-0.008359
-0.00511
-0.003814
-0.008161
0.00698
0.015945
0.010641
0.020374
0.027065
0.028398
0.014119
0.011653
0.000425
-0.000277
0.014731
-0.000343
-0.0132
-0.026446
-0.009868
-0.008753
-0.001974
0.023239
0.015017
0.004802
0.01303
0.018202
0.021829
0.029394
0.030141
0.032441
0.02619
0.009936
0.011859
0.008109
0.006324
-0.007814
-0.018279
-0.014521
-0.005753
0.002994
0.002757
0.020762
0.03341
0.045468
0.020738
0.021161
0.025385
0.025882
0.037652
0.042341
0.040055
0.003848
0.020853
0.025012
0.011005
0.007444
0.004265
0.018478
0.002337
0.002278
0.028214
0.029172
0.041321
0.054976
0.0564
0.050908
0.061873
0.05899
0.067987
0.066245
0.036772
0.027991
0.017234
0.030219
0.027235
0.027883
0.042011
0.021493
0.016378
0.035565
0.040649
0.047605
0.053039
0.067315
0.082226
0.074261
0.081674
0.084618
0.076362
0.084787
0.08025
0.063119
0.057081
0.065665
0.042752
0.055675
0.051891
0.050582
0.048726
0.053201
0.076295
0.084372
0.103785
0.108324
0.07826
0.102904
0.111831
0.108309
0.088008
0.08462
0.07181
0.08176
0.091414
0.079172
0.074367
0.067372
0.067383
0.083509
0.072086
0.071775
0.076839
0.098216
0.096461
0.09979
0.114934
0.125197
0.122668
0.126474
0.130369
0.11391
0.110795
0.10048
0.109978
0.088518
0.078932
0.084825
0.076217
0.065433
0.082151
0.093035
0.109182
0.126866
0.119951
0.117074
0.122844
0.123582
0.125162
0.121783
0.117242
0.123597
0.119098
0.104046
0.100117
0.104209
0.074452
0.059643
0.058769
0.052744
0.044768
0.041249
0.073143
0.078444
0.072337
0.078072
0.086187
0.072866
0.084751
0.079089
0.065191
0.077786
0.080902
0.050692
0.03782
0.027956
0.023831
0.003559
0.007803
0.009461
0.010018
0.029544
0.017569
0.012751
0.013674
0.019848
0.022919
0.022932
0.047488
0.05427
0.048265
0.030144
0.026716
0.022676
0.003952
-0.021079
-0.019345
-0.021345
-0.033533
-0.029596
-0.030532
-0.029912
-0.025889
-0.007397
0.002904
0.014846
0.015272
0.004069
0.010962
0.003326
0.003221
-0.014264
-0.021316
-0.030794
-0.032632
-0.025533
-0.017317
-0.013351
-0.048177
-0.053356
-0.035263
-0.038918
-0.044251
-0.030184
-0.023782
-0.009423
-0.017156
-0.016114
0.000137
0.009664
0.020038
0.000502
-0.015936
-0.01012
-0.029393
-0.038098
-0.037792
-0.03867
-0.040676
-0.045079
-0.054926
-0.048089
-0.039577
-0.043016
-0.01884
0.003005
-0.019874
-0.023264
0.000713
0.009327
0.002285
-0.008351
-0.009397
-0.01683
-0.025573
-0.026541
-0.035989
-0.049947
-0.059114
-0.059038
-0.064278
-0.049966
-0.049492
-0.049695
-0.029841
-0.03123
-0.0181
-0.010501
0.004961
-0.002071
-0.008834
-0.02285
-0.021734
-0.026954
-0.028382
-0.030067
-0.024942
-0.036745
-0.048501
-0.053092
-0.052841
-0.041945
-0.040646
-0.01982
-0.026317
-0.020507
-0.004883
-0.009266
0.009396
0.006806
0.008851
-0.006715
-0.012571
-0.013969
-0.028288
-0.031635
-0.02404
-0.021415
-0.035009
-0.056845
-0.067091
-0.049591
-0.051362
-0.021511
-0.035022
-0.010802
-0.011061
0.001702
0.006029
-0.001895
-0.004925
-0.001116
-0.013117
-0.012968
-0.011656
-0.026486
-0.036112
-0.049959
-0.043818
-0.030939
-0.048625
-0.047955
-0.031328
-0.020522
-0.004512
-0.011871
-0.02142
-0.001606
0.00228
-0.002081
0.000523
-0.005591
-0.004468
-0.022035
-0.021552
-0.031416
-0.030092
-0.04277
-0.049099
-0.051401
-0.067286
-0.051607
-0.053993
-0.036529
-0.010003
0.007485
-0.013239
0.003325
0.006188
-0.000125
0.000164
0.002381
-0.007651
-0.027728
-0.032356
-0.021674
-0.028822
-0.026413
-0.047718
-0.060428
-0.04869
-0.046271
-0.036348
-0.032818
-0.021781
-0.007571
-0.012747
-0.010865
-0.007497
-0.010859
-0.001478
0.014096
0.020336
-0.035842
-0.038098
-0.04127
-0.034065
-0.050662
-0.047765
-0.057727
-0.050139
-0.041335
-0.03169
-0.02826
-0.013999
-0.002351
-0.004828
-0.004403
0.004808
0.019482
0.017595
-0.012446
-0.018777
-0.022943
-0.024548
-0.025327
-0.031624
-0.044905
-0.04395
-0.048283
-0.04222
-0.042242
-0.036593
-0.021063
-0.013722
-0.017561
-0.019734
-0.030123
-0.014634
-0.002432
-0.012816
-0.010755
-0.022061
-0.029643
-0.040045
-0.05997
-0.076795
-0.052299
-0.038041
-0.044824
-0.044104
-0.040518
-0.042594
-0.036704
-0.024
-0.025798
-0.009571
-0.029453
-0.010438
-0.013954
-0.016
-0.015649
-0.009562
-0.031325
-0.04598
-0.038674
-0.040763
-0.040951
-0.047698
-0.052925
-0.054653
-0.045605
-0.050879
-0.040697
-0.014824
-0.02414
-0.013398
-0.010949
-0.014755
-0.00765
-0.001155
-0.020789
-0.018058
-0.016203
-0.031568
-0.036332
-0.032129
-0.042144
-0.044329
-0.050777
-0.052486
-0.062113
-0.053566
-0.045494
-0.028691
-0.023946
-0.017288
-0.012166
-0.011357
-0.005734
-0.004523
0.008937
0.003474
-0.019768
-0.032244
-0.028434
-0.052682
-0.046183
-0.044944
-0.05656
-0.07146
-0.058657
-0.043443
-0.033864
-0.026647
-0.025773
-0.021608
-0.0019
-0.003229
-0.006222
0.004273
-0.004172
-0.022565
-0.021384
-0.006944
-0.03014
-0.030734
-0.025767
-0.027521
-0.047061
-0.046624
-0.03242
-0.024039
-0.023316
-0.009113
0.010743
0.021617
0.010408
0.012229
0.017285
0.027348
0.016412
0.018886
0.013772
0.00928
0.006733
-0.009682
-0.016072
-0.009977
-0.015299
-0.001481
-0.004565
0.000231
0.015052
0.019268
0.026816
0.03809
0.037325
0.041958
0.050035
0.049491
0.042612
0.05047
0.041709
0.038047
0.045787
0.011561
0.002314
-0.001909
-0.008038
-0.000381
0.00091
0.003199
0.020128
0.032408
0.035661
0.032985
0.034908
0.039186
0.048787
0.052985
0.029608
0.040348
0.021907
0.007423
0.021298
-0.001328
-0.010403
-0.032427
-0.036085
-0.021302
-0.035635
-0.017292
-0.014312
-0.008914
-0.011166
0.001608
0.016873
0.019657
-0.00158
-0.025758
-0.004687
-0.02006
-0.027709
-0.016226
-0.021728
-0.029291
-0.028232
-0.040818
-0.047392
-0.04956
-0.050189
-0.034138
-0.042305
-0.040475
-0.035801
-0.045817
-0.04092
-0.020824
-0.022326
-0.021656
-0.029018
-0.031322
-0.042759
-0.062803
-0.066151
-0.058781
-0.048157
-0.061266
-0.073353
-0.057378
-0.058612
-0.082435
-0.060077
-0.043854
-0.051014
-0.035159
-0.034048
-0.038813
-0.025538
-0.026252
-0.037534
-0.03747
-0.041389
-0.036958
-0.039695
-0.070772
-0.074051
-0.067214
-0.071312
-0.095552
-0.099434
-0.063379
-0.057808
-0.074855
-0.067833
-0.038697
-0.044938
-0.033852
-0.026681
-0.024785
-0.028816
-0.033923
-0.038778
-0.030078
-0.035269
-0.055646
-0.068188
-0.081009
-0.081713
-0.080074
-0.080416
-0.076809
-0.067536
-0.05576
-0.066392
-0.058808
-0.041395
-0.039015
-0.03379
-0.039406
-0.031088
-0.038385
-0.040482
-0.046624
-0.066514
-0.069679
-0.06642
-0.068267
-0.067694
-0.069232
-0.058562
-0.089185
-0.072545
-0.051147
-0.051309
-0.046942
-0.041107
-0.047774
-0.033449
-0.034895
-0.047076
-0.046371
-0.044473
-0.05448
-0.053039
-0.055443
-0.064902
-0.060797
-0.045654
-0.023974
-0.034803
-0.043203
-0.022832
-0.013803
0.006407
0.005785
0.017112
0.042658
0.066785
0.085349
0.112011
0.14042
0.159622
0.177175
0.190078
0.192938
0.214025
0.235978
0.260336
0.278968
0.295145
0.336076
0.351108
0.371708
0.383768
0.371796
0.338717
0.299069
0.248763
0.17068
0.101403
0.041072
-0.039064
-0.066503
-0.057142
-0.086085
-0.129634
-0.170175
-0.174025
-0.181621
-0.192683
-0.187773
-0.190017
-0.180215
-0.174195
-0.158527
-0.152556
-0.123181
-0.136476
-0.125133
-0.072518
-0.090073
-0.102497
-0.105429
-0.091427
-0.085354
-0.092975
-0.114742
-0.091995
-0.081376
-0.084817
-0.068259
-0.068706
-0.056654
-0.037743
-0.023802
-0.017527
-0.026605
-0.021463
-0.001257
-0.01363
-0.023639
-0.038804
-0.035053
-0.02807
-0.047301
-0.040132
-0.051213
-0.052889
-0.049585
-0.044047
-0.03319
-0.024496
-0.026587
-0.027397
-0.021262
-0.027945
-0.028463
-0.017469
-0.021942
-0.023444
-0.018178
-0.010712
-0.034494
-0.02997
-0.034228
-0.036282
-0.047906
-0.056189
-0.044881
-0.050436
-0.04808
-0.031561
-0.037744
-0.032423
-0.01268
-0.001959
-0.010925
0.004945
0.003013
0.006751
-0.029381
-0.017963
-0.028916
-0.02351
-0.030943
-0.022563
-0.024808
-0.046503
-0.057487
-0.044022
-0.032482
-0.035273
-0.015208
-0.007826
-0.007447
0.004511
-0.000241
0.009759
0.013617
0.000738
-0.000683
0.003329
0.000479
-0.005262
-0.019494
-0.020592
-0.035352
-0.050076
-0.033841
-0.034681
-0.018222
-0.027927
-0.02653
-0.011898
0.004301
0.006959
0.003069
0.011703
-0.005183
-0.006222
-0.027539
-0.002829
0.013121
-0.007723
-0.017577
-0.015124
-0.019137
-0.021747
-0.019756
-0.01592
-0.010792
0.001493
-0.003325
-0.009465
-0.009498
0.010744
0.014321
0.026533
0.027295
0.025369
-0.002903
-0.000376
0.001907
-0.011059
-0.034104
-0.02528
-0.032008
-0.017306
-0.029213
-0.026749
-0.020995
-0.02426
-0.020207
-0.010517
0.011297
0.018323
0.026653
0.033797
0.017639
0.013096
0.007369
0.025075
0.008086
-0.004519
0.002012
-0.004751
-0.005231
-0.002529
0.002964
-0.00572
0.001724
-0.004143
0.009021
0.011732
0.021617
0.037688
0.031271
0.036634
0.041633
0.031672
0.029913
0.037923
0.022465
0.039547
0.027882
0.018683
0.00871
0.016785
0.0087
-0.000225
0.012624
0.0136
0.02085
0.036113
0.044836
0.033445
0.044475
0.048523
0.044139
0.086417
0.062202
0.050226
0.044053
0.035547
0.031761
0.016549
0.025677
0.015119
0.031094
0.039832
0.055026
0.046307
0.055759
0.060682
0.063355
0.077197
0.07116
0.090229
0.093578
0.099866
0.093334
0.093703
0.068403
0.062306
0.058303
0.047464
0.038398
0.033197
0.056069
0.063255
0.045747
0.051229
0.066751
0.100107
0.089195
0.089655
0.090265
0.107288
0.104718
0.093318
0.10278
0.089945
0.086603
0.07867
0.082079
0.065423
0.078083
0.084693
0.082858
0.065789
0.066901
0.059081
0.076325
0.096151
0.090993
0.090668
0.120375
0.120752
0.122047
0.123488
0.116582
0.110653
0.093143
0.100499
0.088045
0.076571
0.077133
0.078016
0.062907
0.063984
0.047772
0.055687
0.064036
0.073764
0.080309
0.082554
0.085116
0.069751
0.081665
0.077891
0.089349
0.085614
0.063561
0.050241
0.035603
0.03735
0.033424
0.029608
0.026805
0.018038
0.01225
0.013582
0.023792
0.02512
0.049152
0.051624
0.040084
0.046365
0.057717
0.045176
0.031426
0.034623
0.011081
0.011776
0.001993
-0.015654
-0.031877
-0.042032
-0.041879
-0.038748
-0.019355
-0.009238
0.007371
0.018658
0.00474
-0.003832
-0.006175
0.000036
0.004297
0.018055
0.024714
0.005294
-0.014469
-0.01879
-0.016654
-0.025306
-0.026538
-0.029977
-0.049497
-0.063459
-0.051856
-0.024482
-0.013794
-0.026243
-0.027669
-0.013209
-0.013507
-0.021682
-0.008358
0.003251
0.000114
-0.008019
-0.018489
-0.039971
-0.042194
-0.066268
-0.044712
-0.047923
-0.058171
-0.050214
-0.054754
-0.043054
-0.05413
-0.051509
-0.032209
-0.020748
-0.025512
-0.017416
-0.019204
-0.013258
-0.023038
-0.023125
-0.022523
-0.023416
-0.042047
-0.036359
-0.053511
-0.050488
-0.05828
-0.056335
-0.047273
-0.053415
-0.03958
-0.05883
-0.023908
-0.024635
-0.012177
0.002324
0.00974
-0.004109
-0.031887
-0.029012
-0.033043
-0.031277
-0.033162
-0.046703
-0.063566
-0.052156
-0.042717
-0.041503
-0.037496
-0.05208
-0.050012
-0.042466
-0.024252
-0.011205
-0.020787
-0.016754
-0.008424
0.000522
-0.009617
-0.016778
-0.018189
-0.025881
-0.046694
-0.039208
-0.043711
-0.056585
-0.056416
-0.057206
-0.057979
-0.04847
-0.038514
-0.034056
-0.023864
-0.019706
-0.000908
-0.005757
-0.000116
-0.004136
-0.026415
-0.025465
-0.013444
-0.027698
-0.029859
-0.044991
-0.049746
-0.058343
-0.061447
-0.062551
-0.064135
-0.050859
-0.036348
-0.020734
-0.032191
-0.017578
-0.013046
-0.011547
-0.011495
-0.021659
-0.02543
-0.027777
-0.032741
-0.036983
-0.025699
-0.019759
-0.042808
-0.057921
-0.048641
-0.038496
-0.051442
-0.050153
-0.032315
-0.032388
-0.025503
-0.004809
-0.012995
-0.002263
-0.002756
-0.00863
-0.01478
-0.015649
-0.015332
-0.027719
-0.039741
-0.036032
-0.038601
-0.045449
-0.063695
-0.052184
-0.058039
-0.052658
-0.041804
-0.017932
-0.009941
0.000502
0.012476
-0.005934
-0.002395
-0.012065
-0.001759
-0.022322
-0.033901
-0.03162
-0.028655
-0.048428
-0.042
-0.050795
-0.055062
-0.052474
-0.045873
-0.058212
-0.04229
-0.034866
-0.038184
-0.021626
-0.013892
-0.002523
-0.001244
0.005555
-0.004154
-0.02383
-0.028733
-0.025184
-0.042112
-0.025519
-0.037937
-0.065055
-0.065425
-0.060453
-0.060573
-0.061749
-0.0584
-0.037579
-0.040773
-0.018102
-0.014502
-0.008363
-0.011385
-0.017546
-0.020992
-0.028504
-0.028412
-0.032663
-0.042613
-0.050143
-0.052016
-0.05388
-0.06856
-0.065909
-0.058399
-0.042613
-0.038779
-0.019637
-0.018875
-0.020614
-0.025188
-0.022092
-0.010435
-0.01074
-0.02787
-0.035079
-0.024393
-0.036691
-0.055094
-0.068948
-0.061704
-0.048419
-0.059053
-0.057826
-0.051427
-0.048644
-0.057298
-0.040577
-0.028284
-0.047076
-0.042591
-0.019298
-0.001947
-0.000056
-0.010636
-0.0178
-0.02302
-0.021695
-0.02458
-0.045501
-0.061648
-0.061187
-0.062247
-0.059516
-0.04885
-0.044147
-0.05112
-0.034055
-0.028805
-0.01957
-0.033
-0.018058
-0.016276
-0.000342
-0.017226
-0.025537
-0.025048
-0.041213
-0.041102
-0.068306
-0.064085
-0.07431
-0.066115
-0.057464
-0.055692
-0.05403
-0.039219
-0.03304
-0.043414
-0.031044
-0.031852
-0.017159
-0.01581
-0.014998
-0.025146
-0.017453
-0.037229
-0.02725
-0.01397
-0.03507
-0.04407
-0.044944
-0.069426
-0.065253
-0.067906
-0.054718
-0.054555
-0.039608
0.001479
-0.005826
0.000494
0.002863
0.011674
0.00433
0.025088
0.007124
0.003354
-0.01633
-0.011986
-0.019904
-0.022528
-0.015555
-0.053403
-0.019527
-0.015094
-0.009673
-0.008185
0.011067
0.032129
0.014402
0.017818
0.026504
0.028653
0.030164
0.028172
0.029018
0.038505
0.037596
0.039293
0.022995
0.017444
0.007468
-0.010164
-0.011479
0.000662
0.004229
0.006175
0.013995
0.007678
0.016387
0.017302
0.028738
0.039615
0.041068
0.045368
0.008592
0.012429
0.018216
-0.005573
-0.014095
-0.020736
-0.028959
-0.027274
-0.028934
-0.046143
-0.036401
-0.027591
-0.014354
0.003322
0.011469
0.019239
-0.003069
-0.014401
-0.014316
-0.019837
-0.016484
-0.022266
-0.039232
-0.033754
-0.052259
-0.059181
-0.048055
-0.07275
-0.063203
-0.051181
-0.071214
-0.066562
-0.049741
-0.041802
-0.040402
-0.039528
-0.051805
-0.041558
-0.045416
-0.040076
-0.063765
-0.065575
-0.064596
-0.046474
-0.060081
-0.068076
-0.072694
-0.094751
-0.078385
-0.07452
-0.064702
-0.075911
-0.056173
-0.049456
-0.049437
-0.068995
-0.05148
-0.054541
-0.057892
-0.046024
-0.058925
-0.057162
-0.06
-0.083993
-0.065613
-0.069574
-0.091766
-0.088728
-0.094703
-0.087444
-0.077434
-0.085443
-0.064821
-0.066655
-0.059058
-0.052716
-0.060169
-0.040452
-0.042822
-0.050827
-0.058661
-0.053872
-0.069207
-0.068193
-0.081212
-0.090619
-0.102949
-0.101453
-0.1091
-0.107616
-0.100006
-0.084795
-0.069382
-0.061081
-0.045852
-0.054597
-0.05671
-0.049462
-0.035419
-0.040537
-0.046509
-0.048602
-0.064618
-0.091724
-0.092998
-0.091712
-0.079546
-0.091092
-0.099852
-0.091943
-0.08289
-0.079683
-0.052081
-0.045665
-0.036313
-0.03157
-0.036117
-0.033367
-0.046515
-0.056732
-0.060005
-0.056108
-0.061855
-0.073412
-0.079672
-0.087664
-0.082809
-0.074087
-0.048641
-0.031609
-0.034924
-0.048644
-0.030844
-0.002413
-0.005107
0.000478
0.018391
0.050049
0.072925
0.112261
0.135446
0.15973
0.152717
0.174737
0.192549
0.209255
0.233228
0.255587
0.27982
0.298403
0.326752
0.346985
0.378177
0.357006
0.311515
0.293788
0.250371
0.173829
0.099104
0.036888
-0.045866
-0.068094
-0.090011
-0.102765
-0.138912
-0.160921
-0.179953
-0.200679
-0.209174
-0.19301
-0.199052
-0.207594
-0.185073
-0.185919
-0.173623
-0.171348
-0.160504
-0.133309
-0.127731
-0.129723
-0.114693
-0.111834
-0.124686
-0.105963
-0.11034
-0.104007
-0.10569
-0.097024
-0.106653
-0.089155
-0.08502
-0.095021
-0.0539
-0.042727
-0.042323
-0.038712
-0.029028
-0.025116
-0.027317
-0.05109
-0.051149
-0.039745
-0.037242
-0.050904
-0.04932
-0.049252
-0.054201
-0.062128
-0.060987
-0.076604
-0.084366
-0.050382
-0.026039
-0.031891
-0.023392
-0.025238
-0.026246
-0.033294
-0.032279
-0.038495
-0.024974
-0.022684
-0.027166
-0.032966
-0.051693
-0.056517
-0.065846
-0.074903
-0.061614
-0.07345
-0.077545
-0.071343
-0.059339
-0.05845
-0.041093
-0.024833
-0.017214
0.002657
-0.015662
-0.007409
-0.01605
-0.022173
-0.033728
-0.042816
-0.053619
-0.055436
-0.060545
-0.078015
-0.086344
-0.084619
-0.060254
-0.050503
-0.05445
-0.047141
-0.036741
-0.029446
-0.020969
-0.001281
-0.004262
-0.019756
-0.030058
-0.031218
-0.042153
-0.040314
-0.043075
-0.039129
-0.052158
-0.058535
-0.061704
-0.046641
-0.06
-0.051792
-0.041202
-0.028375
-0.028287
-0.014688
-0.015486
-0.005518
-0.001434
-0.002594
-0.013794
-0.012374
-0.025378
-0.047793
-0.035369
-0.046767
-0.050794
-0.047677
-0.05641
-0.057172
-0.066014
-0.066541
-0.050958
-0.022257
-0.02432
-0.013014
-0.004987
-0.012319
-0.008715
-0.003592
-0.004113
0.009672
-0.003996
-0.021823
-0.017524
-0.015849
-0.026556
-0.041688
-0.02854
-0.029397
-0.024166
-0.034514
-0.038107
-0.02046
-0.01324
-0.002815
0.007649
0.015394
0.004695
0.002846
0.022403
0.016914
-0.004758
-0.009246
-0.013305
-0.027419
-0.027582
-0.025113
-0.043465
-0.045192
-0.039246
-0.024606
-0.011324
0.015804
-0.003868
0.000801
0.007133
0.036288
0.046933
0.033663
0.031111
0.014541
0.003983
0.001124
-0.011815
-0.021179
-0.004527
-0.008086
-0.004922
-0.004884
-0.02648
-0.00927
0.012843
0.001242
0.005677
0.004572
0.023126
0.033572
0.036974
0.028106
0.031576
0.031191
0.032177
0.030197
0.014568
0.018932
0.021422
0.018884
0.003419
-0.000671
0.002657
0.007572
0.019913
0.03577
0.031155
0.049172
0.049594
0.050059
0.064597
0.061315
0.061057
0.062885
0.058344
0.053989
0.051573
0.044177
0.035893
0.031624
0.03375
0.028375
0.027229
0.041921
0.039608
0.044771
0.065265
0.068636
0.071666
0.080202
0.087932
0.0844
0.088323
0.086949
0.064282
0.065043
0.068659
0.068048
0.054274
0.062956
0.042406
0.051649
0.053423
0.049925
0.05462
0.072629
0.087596
0.077136
0.077086
0.077163
0.091635
0.103881
0.090269
0.084562
0.078596
0.07582
0.077817
0.075772
0.053915
0.039503
0.037204
0.025829
0.038988
0.040834
0.04722
0.055115
0.052199
0.06852
0.06935
0.059563
0.070473
0.070539
0.060559
0.055411
0.037229
0.027491
0.031759
0.027814
0.018317
0.000849
-0.021882
-0.015938
0.000885
0.012823
-0.002681
0.011197
0.010638
0.00082
-0.009585
0.008627
0.020666
0.030025
0.028241
0.018709
0.003867
0.013191
-0.002471
-0.018192
-0.019049
-0.02338
-0.047055
-0.05653
-0.061526
-0.051662
-0.039727
-0.030253
-0.029158
-0.021693
-0.032257
-0.024399
-0.010143
-0.00964
-0.006373
-0.020847
-0.021522
-0.030245
-0.039757
-0.050676
-0.058238
-0.077151
-0.082467
-0.070871
-0.069447
-0.056498
-0.060058
-0.049435
-0.04162
-0.024174
-0.037621
-0.024223
-0.034094
-0.043935
-0.042306
-0.029555
-0.059438
-0.058381
-0.045167
-0.053788
-0.055385
-0.070441
-0.097912
-0.082703
-0.067414
-0.063922
-0.063295
-0.061424
-0.051204
-0.046071
-0.034863
-0.027517
-0.018331
-0.01457
-0.025392
-0.024332
-0.033127
-0.040143
-0.053927
-0.051641
-0.064696
-0.072211
-0.077101
-0.090626
-0.077752
-0.062851
-0.062501
-0.046584
-0.041855
-0.046924
-0.048491
-0.036411
-0.033408
-0.029878
-0.022314
-0.022708
-0.048894
-0.061431
-0.051115
-0.046973
-0.051171
-0.059197
-0.080179
-0.068554
-0.073476
-0.057771
-0.064727
-0.0585
-0.046022
-0.03456
-0.037652
-0.021912
-0.020746
-0.031923
-0.033344
-0.032742
-0.02755
-0.043009
-0.054465
-0.071741
-0.05185
-0.072174
-0.07638
-0.070228
-0.074477
-0.058779
-0.03764
-0.055036
-0.044778
-0.027954
-0.061558
-0.035961
-0.032365
-0.030255
-0.028471
-0.035582
-0.029611
-0.027853
-0.05042
-0.067637
-0.073178
-0.076919
-0.07741
-0.068259
-0.071916
-0.081381
-0.066798
-0.063225
-0.059543
-0.044714
-0.037405
-0.02752
-0.016812
0.000098
-0.018295
-0.024837
-0.026082
-0.027902
-0.039223
-0.050317
-0.044225
-0.048655
-0.069245
-0.072494
-0.065803
-0.069028
-0.045606
-0.036319
-0.035686
-0.026221
-0.033341
-0.024184
-0.005328
-0.015106
-0.010841
-0.024237
-0.031788
-0.048968
-0.056417
-0.069087
-0.049828
-0.063049
-0.074713
-0.057703
-0.056115
-0.065126
-0.060271
-0.040978
-0.04954
-0.04502
-0.036916
-0.032944
-0.027775
-0.027342
-0.019478
-0.027964
-0.034201
-0.038279
-0.048889
-0.053798
-0.050633
-0.054528
-0.067569
-0.063649
-0.054209
-0.063066
-0.064936
-0.061166
-0.054438
-0.044539
-0.033855
-0.024218
-0.01908
-0.034378
-0.034265
-0.026867
-0.040445
-0.04767
-0.025386
-0.031232
-0.045996
-0.063804
-0.069466
-0.074249
-0.077651
-0.063044
-0.060148
-0.054576
-0.053218
-0.051941
-0.043027
-0.043112
-0.033976
-0.023963
-0.026075
-0.04477
-0.041135
-0.065379
-0.068245
-0.070573
-0.057179
-0.076522
-0.072927
-0.072825
-0.069116
-0.059148
-0.078542
-0.058394
-0.048152
-0.039878
-0.033549
-0.020361
-0.01342
-0.028034
-0.028184
-0.015118
-0.04003
-0.04998
-0.041759
-0.052697
-0.069847
-0.051454
-0.052312
-0.065471
-0.063833
-0.060113
-0.053797
-0.050477
-0.058972
-0.0546
-0.046266
-0.056284
-0.040808
-0.037295
-0.035529
-0.034748
-0.036237
-0.036312
-0.054681
-0.065327
-0.062976
-0.063116
-0.065781
-0.064221
-0.065576
-0.066803
-0.068361
-0.066735
-0.054402
-0.057129
-0.03086
-0.035415
-0.020617
-0.037222
-0.029244
-0.03013
-0.019294
-0.042842
-0.060809
-0.058637
-0.055176
-0.067396
-0.08989
-0.059363
-0.05885
-0.061757
-0.047818
-0.027254
-0.039101
-0.012295
-0.014316
-0.008974
0.002482
0.012583
0.016275
-0.002122
-0.014292
-0.003028
-0.014872
-0.022694
-0.038075
-0.037944
-0.047247
-0.047959
-0.047918
-0.020541
-0.016008
-0.00982
-0.011245
0.000227
0.002898
0.017321
0.021878
0.023633
0.023464
0.007134
0.010395
0.018894
0.029212
0.027136
0.027058
0.012799
-0.014562
0.002902
-0.00942
-0.004743
0.005381
0.010526
0.01763
0.024681
0.016169
0.030263
0.044181
0.040768
0.026037
0.018043
0.019721
0.001169
-0.00837
-0.011292
-0.029605
-0.028557
-0.024413
-0.028502
-0.026367
-0.030634
-0.028054
-0.015449
-0.023227
-0.018796
-0.020927
-0.018378
-0.007139
-0.016479
-0.016668
-0.016012
-0.009859
-0.028733
-0.033903
-0.042998
-0.049416
-0.060418
-0.074342
-0.07843
-0.061701
-0.075061
-0.081447
-0.053175
-0.051273
-0.035225
-0.035639
-0.048164
-0.031681
-0.022861
-0.029751
-0.03848
-0.056055
-0.057749
-0.059626
-0.072181
-0.099285
-0.097902
-0.093762
-0.101328
-0.086677
-0.081036
-0.089672
-0.083017
-0.06191
-0.053227
-0.049752
-0.051639
-0.03763
-0.047184
-0.060236
-0.055711
-0.050518
-0.068968
-0.074476
-0.079709
-0.071178
-0.096502
-0.096077
-0.083947
-0.097672
-0.10693
-0.094567
-0.075104
-0.064833
-0.072009
-0.055303
-0.056579
-0.033048
-0.034645
-0.044672
-0.057141
-0.070838
-0.074907
-0.08255
-0.076403
-0.099233
-0.104235
-0.11366
-0.128018
-0.120755
-0.09216
-0.075157
-0.07814
-0.078814
-0.054425
-0.064855
-0.055504
-0.064927
-0.073904
-0.05797
-0.059651
-0.051818
-0.062696
-0.065941
-0.075256
-0.083219
-0.083514
-0.093939
-0.098458
-0.093658
-0.083695
-0.076099
-0.070521
-0.067234
-0.061042
-0.054288
-0.053859
-0.049732
-0.059374
-0.041514
-0.050963
-0.059665
-0.082461
-0.088974
-0.083033
-0.091617
-0.09343
-0.083922
-0.086836
-0.063969
-0.044214
-0.018813
-0.037576
-0.037757
-0.018088
-0.016969
0.002233
0.011304
0.04391
0.079627
0.086495
0.122385
0.138825
0.148952
0.16967
0.175544
0.190385
0.189961
0.22746
0.257835
0.284465
0.313938
0.345496
0.351318
0.369223
0.334383
0.292863
0.274417
0.228401
0.161007
0.093727
-0.001364
-0.077333
-0.10799
-0.115936
-0.133151
-0.171594
-0.208577
-0.232273
-0.213537
-0.195102
-0.188234
-0.180934
-0.180162
-0.168993
-0.172529
-0.170992
-0.15801
-0.154172
-0.136351
-0.143425
-0.137757
-0.140342
-0.146197
-0.117149
-0.112102
-0.113533
-0.096863
-0.106757
-0.109084
-0.110231
-0.085395
-0.070334
-0.068923
-0.063186
-0.059437
-0.05497
-0.045172
-0.056022
-0.031635
-0.021609
-0.026031
-0.030539
-0.040861
-0.049888
-0.061054
-0.058421
-0.068495
-0.082842
-0.066578
-0.057275
-0.055034
-0.057172
-0.03119
-0.022491
-0.028009
-0.039568
-0.025819
-0.026674
-0.046105
-0.028148
-0.039436
-0.040104
-0.046018
-0.043705
-0.04548
-0.057936
-0.073939
-0.072868
-0.06659
-0.058363
-0.061596
-0.054464
-0.051299
-0.044712
-0.030196
-0.021066
-0.000565
0.00945
-0.036675
-0.028193
-0.036986
-0.040003
-0.049707
-0.041952
-0.055664
-0.057422
-0.059069
-0.064302
-0.062527
-0.056539
-0.053024
-0.063817
-0.049944
-0.036067
-0.014729
-0.038087
-0.016455
0.001322
-0.004631
0.000887
-0.015432
-0.000832
-0.010581
-0.030135
-0.039533
-0.049905
-0.053638
-0.057914
-0.058575
-0.038043
-0.038601
-0.035879
-0.033607
-0.030782
-0.014831
-0.012523
-0.026501
-0.027241
-0.023126
-0.017177
-0.015617
0.005358
-0.011267
-0.020286
-0.019746
-0.03018
-0.031437
-0.044201
-0.045337
-0.053862
-0.051374
-0.045279
-0.027675
-0.013808
-0.008292
-0.019199
-0.001153
0.020604
0.030048
0.028451
0.016782
-0.004172
-0.015598
-0.03275
-0.044315
-0.028397
-0.01877
-0.035322
-0.034127
-0.039757
-0.030053
-0.033994
-0.023351
-0.021441
0.000824
0.001938
0.008237
0.015881
0.028718
0.005499
0.002182
-0.001104
-0.000341
0.004073
-0.022328
-0.028552
-0.034663
-0.03139
-0.025495
-0.031603
-0.022819
-0.007174
-0.006208
0.015999
0.010148
0.014029
0.01788
0.029913
0.02194
0.0238
0.03485
0.031888
0.024095
0.002444
-0.002382
-0.001326
0.004359
0.012393
0.017814
-0.011882
0.002707
0.002108
0.017336
0.01471
0.029324
0.043415
0.035216
0.059409
0.059136
0.037239
0.05632
0.046984
0.028422
0.031856
0.019199
0.015912
0.011729
-0.006657
-0.001804
0.01667
0.041297
0.015141
0.024285
0.033497
0.047061
0.04977
0.067632
0.079388
0.088389
0.077239
0.079582
0.068366
0.054396
0.048689
0.038363
0.039864
0.039692
0.026333
0.034274
0.036619
0.047635
0.048187
0.062731
0.062319
0.077674
0.072704
0.093309
0.102979
0.102211
0.09593
0.079864
0.081507
0.064951
0.062526
0.055259
0.066452
0.062926
0.030055
0.030252
0.043911
0.056258
0.061533
0.08775
0.096358
0.093529
0.097503
0.097761
0.106978
0.10448
0.102672
0.100253
0.108333
0.09808
0.085326
0.064614
0.053362
0.063841
0.047419
0.050064
0.061625
0.055336
0.056315
0.053731
0.066402
0.065576
0.086794
0.067832
0.092161
0.092162
0.093168
0.08759
0.07449
0.045608
0.02703
0.031326
0.036829
0.017314
-0.003253
0.002476
-0.004744
-0.008104
0.002299
0.017778
0.01251
0.010001
0.003361
0.009622
-0.002638
0.007083
0.013646
0.023543
0.020447
0.015617
-0.007719
-0.012418
-0.014953
-0.050817
-0.038008
-0.038435
-0.023683
-0.025013
-0.026807
-0.019185
-0.0182
-0.025722
-0.011654
-0.010638
0.00021
-0.014005
-0.007209
-0.024245
-0.021142
-0.036319
-0.045817
-0.054276
-0.068898
-0.063934
-0.065614
-0.063349
-0.064529
-0.056772
-0.054082
-0.03504
-0.034466
-0.035619
-0.036527
-0.023825
-0.021875
-0.02766
-0.029834
-0.039678
-0.034128
-0.050089
-0.048934
-0.054665
-0.072078
-0.068061
-0.06069
-0.082027
-0.071949
-0.066048
-0.068017
-0.052419
-0.044688
-0.039702
-0.030239
-0.025696
-0.020383
-0.023535
-0.02387
-0.026269
-0.03542
-0.032747
-0.047053
-0.069352
-0.076706
-0.074603
-0.07665
-0.068293
-0.065882
-0.073691
-0.07726
-0.055491
-0.049636
-0.045821
-0.024919
-0.030944
-0.01981
-0.017625
-0.033947
-0.048271
-0.045076
-0.053696
-0.066702
-0.069691
-0.049647
-0.066658
-0.07665
-0.066893
-0.058162
-0.063258
-0.065522
-0.052176
-0.049691
-0.030883
-0.027114
-0.021256
-0.008102
-0.007048
-0.019521
-0.023577
-0.011754
-0.032228
-0.060189
-0.048851
-0.044286
-0.056023
-0.075148
-0.069163
-0.07409
-0.064734
-0.058649
-0.052681
-0.052505
-0.040195
-0.042715
-0.035626
-0.005709
0.004924
-0.031859
-0.037253
-0.03638
-0.043768
-0.050407
-0.055549
-0.060004
-0.058761
-0.055081
-0.059902
-0.066111
-0.035965
-0.036134
-0.052816
-0.053931
-0.037887
-0.027696
-0.018494
-0.016747
-0.031279
-0.033744
-0.034129
-0.018355
-0.018697
-0.038902
-0.056177
-0.06841
-0.066831
-0.072454
-0.061184
-0.059672
-0.070248
-0.063713
-0.044245
-0.03461
-0.039216
-0.029419
-0.024926
-0.015764
-0.011198
-0.020653
-0.023789
-0.03453
-0.040584
-0.040908
-0.032399
-0.049234
-0.063607
-0.061194
-0.051675
-0.067879
-0.080071
-0.055109
-0.046514
-0.056907
-0.045395
-0.036589
-0.031582
-0.013681
-0.009943
-0.018341
0.001717
0.002563
-0.008341
-0.026245
-0.04453
-0.041875
-0.045147
-0.070651
-0.062682
-0.049783
-0.066418
-0.054376
-0.038452
-0.041136
-0.053436
-0.04593
-0.045596
-0.032645
-0.008293
-0.014458
-0.026004
-0.03247
-0.041201
-0.032946
-0.041293
-0.057885
-0.066413
-0.08313
-0.082215
-0.085009
-0.067706
-0.063001
-0.048259
-0.045645
-0.030161
-0.033379
-0.037236
-0.016912
-0.021436
-0.028725
-0.020955
-0.018398
-0.040044
-0.040931
-0.03147
-0.057999
-0.052118
-0.038982
-0.065277
-0.071819
-0.065354
-0.056096
-0.063795
-0.056667
-0.054113
-0.037133
-0.032731
-0.016787
-0.019061
-0.019763
-0.024964
-0.026841
-0.040402
-0.053178
-0.05441
-0.053006
-0.05963
-0.085349
-0.087247
-0.088063
-0.08115
-0.043774
-0.053038
-0.043644
-0.042045
-0.034633
-0.031731
-0.018309
-0.011402
-0.002899
-0.011273
-0.047185
-0.046702
-0.045924
-0.055664
-0.058456
-0.05694
-0.071392
-0.066239
-0.051695
-0.063935
-0.069996
-0.063906
-0.056839
-0.057392
-0.038061
-0.037755
-0.038824
-0.026653
-0.025435
-0.010032
-0.029895
-0.048702
-0.04655
-0.057951
-0.063555
-0.063984
-0.068521
-0.076293
-0.087128
-0.076977
-0.080402
-0.0718
-0.05214
-0.029775
-0.041296
-0.035354
-0.022715
-0.016156
-0.028783
-0.018423
-0.034451
-0.053804
-0.052976
-0.051775
-0.053079
-0.060626
-0.065005
-0.070608
-0.062609
-0.065023
-0.078552
-0.069163
-0.054308
-0.044365
-0.031899
-0.038628
-0.027434
-0.015822
-0.016894
-0.021402
-0.019328
-0.036045
-0.024055
-0.046497
-0.052113
-0.049596
-0.058427
-0.059212
-0.079236
-0.075366
-0.050963
-0.021998
0.001469
-0.002463
-0.00095
0.003441
0.011823
0.015895
0.017919
0.015417
0.017879
-0.000159
-0.003446
0.000646
-0.000051
-0.014083
-0.029538
-0.03657
-0.032333
-0.023821
-0.022631
-0.009129
-0.00136
0.011364
0.016354
0.030534
0.015143
0.029581
0.020141
0.038252
0.033313
0.004965
0.020546
0.031673
0.02474
0.015967
0.008225
-0.018271
-0.023469
0.004188
-0.000272
-0.000744
0.006191
-0.001132
0.004032
0.009922
0.015227
0.014107
0.008294
0.021505
0.022854
0.00145
0.001772
-0.000893
-0.013997
-0.051371
-0.045689
-0.055809
-0.05344
-0.052829
-0.053105
-0.028239
-0.026888
-0.031429
-0.022305
-0.020039
-0.020963
-0.029751
-0.018833
-0.022057
-0.02962
-0.040808
-0.04364
-0.052596
-0.066766
-0.059996
-0.069852
-0.071744
-0.076183
-0.074617
-0.062268
-0.056066
-0.046385
-0.058423
-0.053864
-0.038053
-0.035172
-0.038099
-0.041727
-0.042704
-0.047446
-0.051468
-0.063948
-0.068307
-0.079911
-0.087947
-0.082922
-0.100776
-0.097248
-0.088569
-0.089064
-0.087484
-0.075303
-0.084683
-0.068136
-0.059749
-0.047755
-0.036147
-0.03328
-0.038125
-0.046461
-0.072012
-0.083459
-0.082243
-0.096363
-0.099217
-0.105949
-0.094882
-0.090851
-0.091177
-0.093557
-0.094156
-0.082145
-0.074659
-0.063453
-0.051895
-0.050685
-0.058804
-0.050893
-0.041768
-0.056486
-0.060344
-0.061558
-0.068469
-0.080115
-0.093704
-0.096576
-0.105031
-0.103785
-0.103275
-0.108882
-0.087169
-0.057163
-0.070184
-0.077419
-0.077561
-0.064728
-0.049704
-0.05363
-0.062527
-0.074352
-0.081543
-0.073275
-0.07025
-0.090598
-0.097413
-0.107636
-0.102935
-0.104628
-0.110996
-0.093547
-0.063558
-0.06639
-0.081265
-0.065743
-0.049857
-0.054806
-0.050324
-0.058294
-0.061658
-0.061531
-0.071796
-0.066024
-0.063339
-0.080618
-0.080675
-0.082361
-0.076902
-0.074633
-0.053103
-0.024637
-0.035634
-0.031937
-0.014015
-0.006315
0.01911
0.053322
0.058653
0.089027
0.141858
0.16164
0.172237
0.18366
0.207496
0.23732
0.247301
0.270398
0.281773
0.307644
0.32622
0.322214
0.342015
0.352424
0.296896
0.280199
0.259856
0.171931
0.088215
0.023833
-0.055752
-0.087274
-0.10064
-0.121859
-0.127447
-0.165751
-0.1942
-0.205128
-0.201393
-0.195857
-0.207209
-0.195596
-0.185609
-0.184116
-0.180567
-0.161768
-0.151833
-0.145822
-0.130955
-0.115734
-0.10995
-0.12573
-0.106349
-0.094917
-0.091854
-0.085939
-0.093061
-0.101943
-0.110299
-0.093685
-0.093577
-0.087085
-0.087648
-0.070308
-0.061789
-0.060641
-0.050292
-0.040539
-0.030861
-0.029854
-0.03507
-0.034703
-0.027147
-0.042894
-0.052558
-0.06281
-0.071792
-0.073804
-0.086938
-0.092709
-0.093759
-0.069256
-0.057167
-0.070113
-0.060047
-0.055446
-0.043679
-0.045659
-0.044837
-0.026498
-0.026579
-0.031586
-0.037261
-0.04752
-0.032223
-0.038114
-0.056152
-0.071405
-0.083215
-0.069689
-0.064449
-0.062816
-0.057664
-0.050503
-0.05863
-0.057141
-0.045873
-0.037841
-0.015131
-0.004407
-0.019384
-0.024617
-0.026088
-0.037759
-0.047007
-0.064242
-0.059805
-0.060677
-0.081482
-0.066634
-0.060587
-0.055461
-0.0609
-0.051892
-0.036601
-0.034925
-0.037907
-0.024968
-0.023658
-0.006407
-0.015712
-0.019677
-0.019855
-0.035333
-0.044433
-0.043621
-0.050426
-0.042426
-0.056733
-0.059219
-0.057071
-0.047492
-0.052671
-0.041281
-0.037587
-0.026194
-0.013158
-0.015153
0.000461
-0.010725
-0.010907
-0.022145
-0.020094
-0.022388
-0.026878
-0.032621
-0.04648
-0.039062
-0.045026
-0.042737
-0.026272
-0.021837
-0.043355
-0.04637
-0.033951
-0.014696
-0.006042
-0.004191
0.006884
0.000103
-0.005865
-0.006309
-0.004452
-0.027555
-0.033419
-0.034651
-0.037933
-0.036263
-0.051893
-0.061906
-0.045028
-0.023385
-0.034692
-0.055357
-0.033175
-0.001102
0.022173
0.004868
-0.005843
0.001028
0.003592
0.012012
0.015028
-0.012794
-0.019103
-0.031643
-0.02793
-0.030733
-0.031868
