-0.061978
0.000323
0.032314
0.033857
0.029038
0.044361
0.053128
0.024150
0.001961
-0.041201
-0.108145
-0.128308
-0.142496
-0.188858
-0.210347
-0.206819
-0.216118
-0.192876
-0.157089
-0.131004
-0.099526
-0.044232
0.009467
0.051421
0.079252
0.062244
0.027844
0.032041
0.020433
-0.030380
-0.061127
-0.114520
-0.205235
-0.218339
-0.207420
-0.231145
-0.212188
-0.183902
-0.152921
-0.112823
-0.067053
0.005125
0.027326
0.021489
0.036528
0.081130
0.087173
0.048582
0.032166
0.033661
-0.032250
-0.126712
-0.191212
-0.193565
-0.204743
-0.194267
-0.171288
-0.171542
-0.158772
-0.113449
-0.060824
0.016900
0.082061
0.091132
0.077991
0.091536
0.092578
0.074579
0.046958
-0.003628
-0.056861
-0.103504
-0.121672
-0.161544
-0.149746
-0.174191
-0.186546
-0.147639
-0.114991
-0.081785
-0.030796
-0.001534
0.058495
0.100534
0.108251
0.089989
0.090275
0.092900
0.078735
0.036089
-0.016673
-0.069518
-0.115956
-0.122671
-0.173028
-0.224637
-0.150781
-0.161462
-0.155713
-0.086681
0.009911
0.027726
0.031264
0.088686
0.131913
0.145046
0.118652
0.082558
0.040342
-0.022187
-0.071701
-0.105071
-0.142689
-0.174548
-0.204038
-0.215161
-0.203741
-0.188332
-0.167455
-0.125069
-0.093875
-0.041730
0.007122
0.048381
0.065994
0.088761
0.066719
0.032490
-0.006318
-0.062233
-0.072214
-0.121429
-0.169680
-0.212486
-0.237926
-0.245096
-0.202515
-0.193525
-0.179986
-0.134521
-0.082212
-0.046664
-0.008121
0.008440
0.031133
0.023574
0.032752
0.017943
-0.020306
-0.072986
-0.116437
-0.161916
-0.198324
-0.229164
-0.267910
-0.207733
-0.205088
-0.217895
-0.171293
-0.127315
-0.085369
-0.052099
-0.029194
0.026092
0.070480
0.072865
0.055761
0.029464
-0.012162
-0.052004
-0.111232
-0.180630
-0.209124
-0.224872
-0.242888
-0.249789
-0.207284
-0.222685
-0.193877
-0.121782
-0.086408
-0.074990
-0.047985
0.005165
0.039491
0.028012
0.018997
0.039139
0.006607
-0.055082
-0.095542
-0.121488
-0.161877
-0.217234
-0.248301
-0.259670
-0.242431
-0.234449
-0.205967
-0.182440
-0.144968
-0.081773
0.010662
0.058290
0.059028
0.035542
0.018028
-0.004405
-0.017262
-0.028382
-0.044946
-0.073342
-0.102603
-0.134352
-0.157884
-0.170458
-0.104407
-0.074157
-0.040869
0.027244
0.123992
0.180547
0.228898
0.285182
0.355215
0.390043
0.468076
0.473876
0.447863
0.414134
0.405447
0.395321
0.392378
0.404570
0.431482
0.459289
0.470848
0.539726
0.616798
0.670118
0.712905
0.745710
0.806644
0.817784
0.783555
0.772516
0.754923
0.712752
0.630994
0.505861
0.389851
0.295818
0.214405
0.141487
0.058818
0.032720
-0.000406
0.007214
0.008700
0.043703
0.067608
0.110089
0.117636
0.143975
0.169795
0.158814
0.156025
0.113903
0.069821
0.018645
-0.016511
-0.053627
-0.085462
-0.128582
-0.156518
-0.162921
-0.139237
-0.097965
-0.084932
-0.079787
-0.049163
0.019214
0.044083
0.062348
0.088961
0.081738
0.076576
0.070904
0.083858
0.021283
-0.045643
-0.104708
-0.137316
-0.189115
-0.231021
-0.252732
-0.205951
-0.172407
-0.134028
-0.097032
-0.040519
0.005169
0.024554
0.056932
0.076846
0.092187
0.084322
0.051702
0.012248
-0.023293
-0.068046
-0.131006
-0.173665
-0.186393
-0.174343
-0.169196
-0.193828
-0.211686
-0.132066
-0.081039
-0.054474
-0.020321
0.027829
0.052541
0.075156
0.089754
0.088251
0.083414
0.046352
-0.000888
-0.020183
-0.086751
-0.145275
-0.171322
-0.172873
-0.195830
-0.193417
-0.150489
-0.104908
-0.082098
-0.017953
0.019256
0.060374
0.080480
0.094906
0.098375
0.091658
0.085028
0.054889
0.023166
-0.014963
-0.067460
-0.112742
-0.145049
-0.172890
-0.178740
-0.162056
-0.126055
-0.079098
-0.034051
0.001789
0.021634
0.066100
0.121807
0.148914
0.163819
0.146046
0.122703
0.085607
0.076433
0.044347
-0.020609
-0.084048
-0.119339
-0.147535
-0.145225
-0.139148
-0.090321
-0.051972
-0.030100
0.015933
0.044934
0.110447
0.125537
0.184400
0.202860
0.191245
0.172296
0.147173
0.092679
0.032485
-0.015100
-0.031867
-0.041072
-0.069621
-0.071984
-0.044113
-0.032950
-0.020190
0.017594
0.063987
0.103819
0.144517
0.178116
0.201403
0.198423
0.188592
0.179686
0.161202
0.127404
0.088190
0.032752
0.000499
-0.046054
-0.071632
-0.071314
-0.055794
-0.023302
-0.015456
0.013837
0.068809
0.109147
0.147454
0.170689
0.204946
0.213226
0.200905
0.183863
0.147906
0.094352
0.045075
0.004246
-0.041644
-0.061160
-0.075435
-0.065336
-0.066089
-0.068816
-0.033658
0.032415
0.091809
0.114617
0.151060
0.177767
0.196429
0.160752
0.167838
0.152364
0.123962
0.073556
0.025506
0.010113
-0.021995
-0.056607
-0.070032
-0.091289
-0.111932
-0.096967
-0.070363
-0.044688
-0.001689
0.049632
0.091006
0.119375
0.144011
0.168846
0.162908
0.121513
0.100262
0.055916
0.008957
-0.046686
-0.089079
-0.135027
-0.175465
-0.168124
-0.136718
-0.106064
-0.080148
-0.048979
-0.030207
0.008699
0.041549
0.081638
0.112704
0.105506
0.094685
0.083842
0.047944
0.002887
-0.049764
-0.094327
-0.139661
-0.176800
-0.195995
-0.214515
-0.197417
-0.171271
-0.137260
-0.139040
-0.043555
0.033803
0.057765
0.065746
0.091538
0.120502
0.093226
0.061026
0.015627
-0.001392
-0.043805
-0.097611
-0.135074
-0.165105
-0.188327
-0.210142
-0.209492
-0.175698
-0.135096
-0.079169
-0.055037
-0.010495
0.024940
0.039661
0.097576
0.113288
0.091753
0.049330
0.000640
-0.042590
-0.086023
-0.105904
-0.109992
-0.153703
-0.178558
-0.163113
-0.190264
-0.173005
-0.146367
-0.100596
-0.046073
-0.015090
0.045590
0.079301
0.090934
0.096141
0.075248
0.048911
0.010572
0.004348
-0.052948
-0.073841
-0.111248
-0.165309
-0.189837
-0.190141
-0.163696
-0.160473
-0.101955
-0.059228
-0.036502
0.009050
0.068775
0.068722
0.084932
0.106006
0.095118
0.050207
0.019051
-0.001286
-0.047832
-0.104537
-0.100204
-0.135640
-0.175811
-0.189880
-0.189887
-0.173005
-0.146147
-0.107555
-0.052759
0.009001
0.076461
0.113093
0.114403
0.099869
0.102396
0.060938
0.031682
-0.004262
-0.045177
-0.077904
-0.128199
-0.160604
-0.179072
-0.182633
-0.189689
-0.160820
-0.129331
-0.099335
-0.049721
0.012782
0.060953
0.077741
0.094956
0.093138
0.082249
0.070040
0.031761
-0.006895
-0.040314
-0.074174
-0.126992
-0.168477
-0.195539
-0.193363
-0.184239
-0.155946
-0.118631
-0.082678
-0.057178
-0.016494
0.041797
0.089169
0.112653
0.094270
0.086996
0.063009
0.025697
-0.005190
-0.044394
-0.094435
-0.165007
-0.170985
-0.162014
-0.156051
-0.174590
-0.169166
-0.146795
-0.115996
-0.049504
-0.004003
0.035024
0.071033
0.103831
0.089485
0.074219
0.067610
0.014855
-0.024924
-0.065184
-0.089410
-0.101436
-0.159236
-0.196711
-0.204900
-0.211247
-0.216727
-0.164209
-0.057893
0.000839
0.009743
0.021342
0.055023
0.079589
0.084951
0.071827
0.061795
0.036493
-0.008685
-0.065380
-0.102805
-0.145024
-0.190478
-0.208200
-0.209644
-0.182605
-0.165623
-0.139074
-0.114813
-0.070128
-0.028832
0.023312
0.039580
0.049591
0.077596
0.108079
0.062729
0.012061
-0.012599
-0.053564
-0.093576
-0.154326
-0.170693
-0.181460
-0.210036
-0.207733
-0.185198
-0.141486
-0.110802
-0.071518
-0.007203
0.049366
0.061685
0.060638
0.065554
0.086878
0.073740
0.034183
-0.003506
-0.063362
-0.118230
-0.162267
-0.166109
-0.181940
-0.208753
-0.208227
-0.188660
-0.149744
-0.112165
-0.052824
-0.014930
0.022105
0.058949
0.087491
0.089420
0.083111
0.062466
0.006553
-0.028343
-0.047966
-0.084770
-0.139745
-0.195304
-0.201154
-0.201270
-0.190265
-0.180915
-0.150078
-0.082829
0.009598
0.049637
0.050939
0.095644
0.109155
0.106953
0.110379
0.103241
0.057278
0.053846
-0.014116
-0.072891
-0.100633
-0.135134
-0.167323
-0.181033
-0.179814
-0.155904
-0.117189
-0.062251
-0.007610
0.023704
0.062967
0.103988
0.103879
0.127899
0.114364
0.085696
0.049269
0.013382
-0.042596
-0.071730
-0.086022
-0.122980
-0.143991
-0.159684
-0.132389
-0.105043
-0.096107
-0.064630
0.005934
0.054096
0.092295
0.103445
0.093068
0.126746
0.113499
0.083353
0.059014
0.010835
-0.043657
-0.073919
-0.118658
-0.159495
-0.186159
-0.196186
-0.187257
-0.158169
-0.132812
-0.100784
-0.061633
-0.002729
0.039982
0.076648
0.078370
0.080853
0.076080
0.055857
0.033881
-0.017460
-0.065658
-0.119014
-0.159298
-0.204775
-0.217392
-0.208979
-0.186395
-0.177804
-0.174913
-0.110860
-0.036800
0.007236
-0.002068
0.033894
0.052393
0.053753
0.051840
0.027945
0.017771
-0.028304
-0.134140
-0.125353
-0.111188
-0.176867
-0.213497
-0.224888
-0.213892
-0.189661
-0.172330
-0.129283
-0.081656
-0.031208
-0.006165
0.031394
0.045285
0.025453
0.041943
0.023394
-0.012441
-0.061741
-0.107417
-0.140169
-0.165740
-0.182309
-0.219000
-0.237167
-0.210906
-0.212928
-0.168096
-0.127910
-0.054298
-0.019894
-0.010834
0.028860
0.062648
0.058154
0.055446
0.039927
-0.006627
-0.051860
-0.101326
-0.137622
-0.173540
-0.198272
-0.208634
-0.234172
-0.235598
-0.219217
-0.196738
-0.144055
-0.086647
-0.045940
-0.013029
0.004102
0.031038
0.068657
0.057862
0.056216
0.027552
-0.019529
-0.063849
-0.115605
-0.153182
-0.165684
-0.130152
-0.108161
-0.082759
-0.044924
-0.001057
0.028320
0.090856
0.142351
0.201747
0.285068
0.300879
0.331340
0.338873
0.330887
0.359136
0.370411
0.330592
0.315349
0.289418
0.268989
0.274773
0.328003
0.405150
0.450567
0.506344
0.583604
0.663523
0.727464
0.768940
0.791526
0.799755
0.798806
0.811787
0.797090
0.735686
0.634746
0.517558
0.403460
0.312693
0.207664
0.144754
0.097553
0.052282
0.051621
0.019222
-0.001059
0.042266
0.092515
0.129389
0.170938
0.197547
0.181729
0.161424
0.122539
0.091767
0.040747
-0.009823
-0.033523
-0.095953
-0.125682
-0.134473
-0.149541
-0.150137
-0.116141
-0.095859
-0.050484
-0.021126
0.016622
0.035988
0.069913
0.085661
0.090041
0.084548
0.101902
0.082566
0.032507
-0.032406
-0.079147
-0.122402
-0.157281
-0.167548
-0.172378
-0.170371
-0.156585
-0.123251
-0.087168
-0.052619
0.000331
0.047801
0.073348
0.087944
0.095999
0.124523
0.107487
0.041610
-0.021852
-0.087630
-0.098552
-0.106187
-0.121309
-0.148896
-0.178629
-0.187983
-0.192580
-0.139138
-0.089566
-0.033756
0.017812
0.052845
0.059460
0.077473
0.089643
0.109472
0.108679
0.036399
-0.014270
-0.031399
-0.029253
-0.099063
-0.172700
-0.157625
-0.176182
-0.172097
-0.156389
-0.161414
-0.070982
0.005348
0.029363
0.070619
0.111312
0.120316
0.116140
0.105386
0.091595
0.068208
0.035689
-0.007752
-0.045483
-0.090254
-0.138916
-0.141726
-0.156475
-0.161137
-0.130699
-0.104839
-0.059332
-0.000247
0.055356
0.096443
0.126954
0.140451
0.147812
0.156331
0.132017
0.096907
0.063194
0.006208
-0.063722
-0.070892
-0.111435
-0.120863
-0.112654
-0.091273
-0.095846
-0.065260
-0.016224
0.040929
0.093758
0.133489
0.160501
0.180559
0.197570
0.201147
0.179096
0.131664
0.075677
0.030760
-0.015953
-0.048301
-0.071090
-0.073954
-0.077009
-0.060199
-0.019949
0.002444
0.032165
0.061675
0.110385
0.141097
0.204092
0.231379
0.241928
0.223846
0.175257
0.124606
0.131932
0.096503
0.044645
-0.007813
-0.050451
-0.049222
-0.042854
-0.037211
-0.034614
-0.008695
0.018848
0.055921
0.129012
0.177262
0.194768
0.217521
0.211054
0.194557
0.157229
0.161155
0.108973
0.098146
0.059661
0.008290
-0.031061
-0.056477
-0.057415
-0.053041
-0.039394
-0.015141
0.032814
0.091932
0.131582
0.155108
0.193524
0.202989
0.217793
0.200088
0.173756
0.135105
0.097507
0.041445
0.000744
-0.035693
-0.078780
-0.096143
-0.100460
-0.093151
-0.078838
-0.043209
-0.000865
0.043212
0.091056
0.131773
0.150469
0.169835
0.184368
0.169740
0.136339
0.109545
0.061785
0.004377
-0.043353
-0.108873
-0.165233
-0.165959
-0.128256
-0.085148
-0.075246
-0.072248
-0.053798
0.013212
0.053034
0.076797
0.075897
0.096769
0.118833
0.119087
0.122929
0.063443
0.023308
0.025245
-0.061348
-0.138659
-0.190543
-0.195493
-0.190021
-0.140908
-0.093757
-0.092489
-0.070972
-0.032872
0.017136
0.053437
0.082843
0.086814
0.090558
0.088680
0.067498
0.029447
-0.013812
-0.062917
-0.111857
-0.143562
-0.157807
-0.186583
-0.183528
-0.188458
-0.166345
-0.136133
-0.072424
-0.022683
0.010305
0.017422
0.080455
0.091910
0.094123
0.077584
0.082078
0.055758
0.003978
-0.041648
-0.087130
-0.133009
-0.167806
-0.180803
-0.182264
-0.179088
-0.130556
-0.074241
-0.054293
-0.033853
-0.000760
0.022054
0.069912
0.099485
0.100576
0.081921
0.051866
0.021507
-0.019425
-0.065842
-0.087514
-0.118582
-0.156644
-0.175970
-0.181933
-0.167799
-0.175060
-0.141115
-0.102701
-0.057714
0.023638
0.077115
0.103212
0.133667
0.132607
0.106179
0.077937
0.049604
0.007521
-0.021022
-0.079383
-0.130919
-0.159553
-0.170819
-0.179251
-0.202945
-0.171054
-0.122713
-0.089511
-0.020718
0.014411
0.068044
0.113556
0.123349
0.111209
0.105002
0.089263
0.040834
-0.013542
-0.056304
-0.120784
-0.158650
-0.181828
-0.193944
-0.154449
-0.156585
-0.148698
-0.117517
-0.081253
-0.039282
0.014605
0.055592
0.092364
0.097954
0.101186
0.115131
0.101007
0.054463
0.016182
-0.033943
-0.096058
-0.149487
-0.172486
-0.163318
-0.162772
-0.171974
-0.158279
-0.126941
-0.068588
-0.034582
-0.015166
0.031497
0.061135
0.094969
0.128002
0.113350
0.068299
0.033211
0.002626
-0.066225
-0.137732
-0.133865
-0.163154
-0.178603
-0.193895
-0.177852
-0.161506
-0.133685
-0.094822
-0.035025
0.009342
0.037002
0.070763
0.090794
0.089526
0.091990
0.079660
0.036019
-0.007615
-0.060239
-0.119555
-0.169990
-0.180397
-0.176582
-0.205569
-0.213042
-0.206617
-0.127992
-0.070821
-0.036028
0.006455
0.043712
0.090791
0.103753
0.093255
0.097017
0.068300
0.029440
-0.005786
-0.048997
-0.113011
-0.159570
-0.191879
-0.214085
-0.231789
-0.217638
-0.162794
-0.127962
-0.101259
-0.047052
-0.012994
0.035106
0.056135
0.076280
0.077851
0.084655
0.062588
0.012423
-0.038747
-0.068123
-0.092642
-0.107204
-0.149613
-0.196162
-0.217312
-0.171922
-0.170095
-0.140764
-0.102308
-0.053234
-0.019555
0.030194
0.045498
0.088466
0.095315
0.079488
0.044422
0.016443
-0.033272
-0.090259
-0.078768
-0.084515
-0.141610
-0.196215
-0.196000
-0.181630
-0.147698
-0.118040
-0.068664
0.007498
0.044251
0.039869
0.121500
0.143259
0.136310
0.132852
0.106060
0.051992
0.016679
-0.026333
-0.078351
-0.112206
-0.151315
-0.162259
-0.189046
-0.185443
-0.127850
-0.120760
-0.076922
-0.027010
0.026081
0.074982
0.114063
0.129976
0.124406
0.110381
0.092288
0.081138
0.056207
0.001220
-0.038855
-0.062016
-0.116683
-0.155646
-0.185020
-0.176083
-0.132526
-0.076850
-0.032896
-0.012805
0.025102
0.073119
0.105585
0.118037
0.117451
0.105887
0.089000
0.043011
-0.003270
-0.061090
-0.118574
-0.147087
-0.160991
-0.176051
-0.171589
-0.162101
-0.159779
-0.147051
-0.097332
-0.042931
0.004057
0.027412
0.037718
0.056862
0.043695
0.020719
0.032668
0.041735
-0.026959
-0.127205
-0.147314
-0.181074
-0.180167
-0.181877
-0.200194
-0.212750
-0.212924
-0.142203
-0.096875
-0.071654
-0.040564
0.003412
0.039998
0.056222
0.066675
0.059881
0.037709
-0.004662
-0.063633
-0.093029
-0.126623
-0.168751
-0.208580
-0.233806
-0.238520
-0.232506
-0.208723
-0.184422
-0.148862
-0.107596
-0.069036
-0.013515
0.032097
0.050244
0.061181
0.046286
0.013044
-0.030867
-0.079638
-0.098297
-0.111087
-0.156104
-0.214100
-0.239563
-0.220942
-0.205823
-0.180752
-0.178962
-0.133305
-0.085741
-0.041168
-0.012931
0.029063
0.039327
0.025096
0.043767
0.029508
-0.009407
-0.046244
-0.101385
-0.158456
-0.195682
-0.209632
-0.224721
-0.253511
-0.236836
-0.209211
-0.172255
-0.160172
-0.128714
-0.070518
-0.019224
0.027997
0.057711
0.075458
0.067975
0.108660
0.083473
0.051740
-0.001294
-0.037935
-0.067640
-0.081452
-0.095955
-0.099515
-0.065266
-0.007524
0.038454
0.101060
0.167976
0.246792
0.313511
0.366040
0.419844
0.455887
0.490488
0.495003
0.490167
0.476839
0.455065
0.437469
0.428636
0.453308
0.480403
0.512206
0.537640
0.568590
0.602435
0.638264
0.689375
0.708903
0.746707
0.780807
0.770446
0.722560
0.645413
0.574761
0.510039
0.381589
0.251454
0.156784
0.085029
0.011006
-0.049085
-0.085795
-0.089838
-0.058963
-0.064556
-0.047750
0.022803
0.058689
0.079284
0.105811
0.144002
0.176013
0.153249
0.113593
0.069758
0.016069
-0.026657
-0.065811
-0.096481
-0.110767
-0.135156
-0.167168
-0.182752
-0.153156
-0.131499
-0.075560
-0.046606
-0.014560
0.021986
0.058660
0.104608
0.143112
0.125504
0.053819
0.005185
0.008228
-0.015780
-0.075839
-0.151156
-0.190921
-0.213717
-0.207189
-0.209503
-0.201304
-0.158314
-0.099140
-0.049175
-0.013803
0.026170
0.060071
0.070820
0.099100
0.117779
0.060188
0.007088
-0.024025
-0.073347
-0.124844
-0.163436
-0.191018
-0.208703
-0.193771
-0.174186
-0.155484
-0.126965
-0.097019
-0.041800
0.008241
0.042838
0.067912
0.082771
0.092784
0.085794
0.065835
0.023840
-0.013671
-0.072691
-0.109689
-0.126950
-0.155765
-0.174691
-0.194674
-0.180713
-0.157359
-0.121015
-0.075224
-0.016050
0.046059
0.065487
0.115499
0.128345
0.127681
0.130388
0.103383
0.064348
0.007513
-0.043246
-0.071564
-0.109539
-0.120346
-0.118226
-0.121894
-0.140229
-0.148957
-0.111964
-0.044490
0.003139
0.036515
0.072452
0.097605
0.133079
0.144532
0.138767
0.076985
0.076921
0.048935
0.016661
-0.011397
-0.070535
-0.125750
-0.125141
-0.103964
-0.105508
-0.100607
-0.076075
-0.031216
0.017781
0.074330
0.120098
0.143423
0.169637
0.203432
0.193348
0.161708
0.115433
0.061560
0.019430
-0.049960
-0.049089
-0.052732
-0.061656
-0.058716
-0.074126
-0.074422
-0.021980
0.013453
0.051266
0.101722
0.141059
0.183221
0.197105
0.197634
0.183452
0.178231
0.153172
0.114226
0.052593
0.001056
-0.030734
-0.056544
-0.073421
-0.084341
-0.081852
-0.057317
-0.016362
0.028655
0.067416
0.103447
0.155299
0.201771
0.238784
0.226212
0.200262
0.179368
0.139960
0.106580
0.041796
-0.010123
-0.047886
-0.076364
-0.091156
-0.105987
-0.102612
-0.077746
-0.050448
-0.010149
0.036986
0.081092
0.129438
0.175954
0.192592
0.198894
0.177928
0.154116
0.114582
0.073155
0.018106
-0.038187
-0.095241
-0.093482
-0.107622
-0.121126
-0.128373
-0.103863
-0.081792
-0.046600
-0.011367
0.019562
0.073515
0.117393
0.139351
0.127908
0.123128
0.128690
0.087081
0.018876
-0.034126
-0.080206
-0.112867
-0.148638
-0.175701
-0.178221
-0.180435
-0.158850
-0.128983
-0.074878
-0.031855
0.010943
0.048598
0.078539
0.110759
0.115402
0.099332
0.102418
0.029478
-0.026582
-0.070389
-0.119685
-0.130274
-0.174067
-0.195443
-0.176951
-0.188996
-0.194879
-0.165182
-0.105154
-0.059710
0.001037
0.016822
0.061861
0.090896
0.076549
0.028661
0.054334
0.012588
-0.008346
-0.054245
-0.092672
-0.127051
-0.182276
-0.211079
-0.233541
-0.219064
-0.178009
-0.138467
-0.097680
-0.064902
-0.018009
0.020309
0.070284
0.063576
0.084618
0.084560
0.025385
-0.041285
-0.051823
-0.076553
-0.093818
-0.120386
-0.170767
-0.212134
-0.215957
-0.206664
-0.174124
-0.139290
-0.103437
-0.083162
-0.013780
0.044310
0.084779
0.094497
0.068980
0.090028
0.082979
0.042343
0.010074
-0.039609
-0.087818
-0.147142
-0.191959
-0.231736
-0.246976
-0.209242
-0.175003
-0.110647
-0.072939
-0.035736
0.014505
0.040784
0.070143
0.105869
0.127940
0.105613
0.052084
0.016112
-0.014979
-0.046033
-0.089178
-0.138842
-0.170802
-0.194641
-0.199266
-0.178697
-0.127346
-0.103800
-0.092169
-0.047800
0.005800
0.027544
0.064255
0.086263
0.099282
0.109081
0.099214
0.057712
0.009144
-0.068688
-0.106672
-0.137376
-0.177448
-0.198654
-0.210078
-0.207984
-0.162257
-0.121132
-0.098789
-0.050605
0.013863
0.037315
0.063546
0.088225
0.092655
0.082449
0.069004
0.037672
-0.005649
-0.051465
-0.057225
-0.140421
-0.195842
-0.216984
-0.217868
-0.198219
-0.170123
-0.124532
-0.080688
-0.047253
-0.000278
0.039003
0.048614
0.117304
0.093454
0.050596
0.041025
-0.000366
-0.049835
-0.095788
-0.083453
-0.122013
-0.168275
-0.213277
-0.233075
-0.198275
-0.163524
-0.136854
-0.110750
-0.064042
-0.012063
0.013774
0.052514
0.080409
0.079628
0.068181
0.043946
0.001859
-0.034215
-0.074459
-0.116383
-0.159933
-0.167709
-0.206494
-0.214821
-0.214327
-0.184752
-0.143078
-0.110597
-0.070861
-0.019811
0.028407
0.060233
0.070909
0.078320
0.059154
0.026126
-0.033672
-0.032696
-0.091603
-0.159660
-0.160160
-0.159894
-0.186328
-0.211552
-0.204322
-0.200666
-0.167593
-0.102421
-0.033680
-0.003512
0.023992
0.056884
0.070856
0.072064
0.080601
0.068117
0.008585
-0.039667
-0.087662
-0.141744
-0.162153
-0.196126
-0.210911
-0.211839
-0.213179
-0.185659
-0.134190
-0.082147
-0.030060
0.009636
0.081846
0.089369
0.070563
0.106079
0.102539
0.088699
0.053540
-0.013997
-0.015281
-0.090046
-0.129111
-0.179789
-0.206741
-0.216232
-0.202617
-0.150595
-0.089311
-0.067143
-0.042238
0.010875
0.069211
0.086324
0.087102
0.084854
0.085869
0.063209
0.046074
0.014713
-0.043994
-0.102727
-0.146773
-0.132468
-0.164911
-0.162913
-0.122490
-0.101990
-0.088108
-0.053946
-0.020643
0.019274
0.058114
0.065807
0.089203
0.133230
0.122183
0.093181
0.032535
0.006788
-0.036991
-0.086253
-0.134751
-0.169067
-0.191764
-0.198676
-0.208061
-0.169847
-0.142620
-0.097873
-0.063325
-0.004090
0.038037
0.061081
0.080419
0.078849
0.067046
0.034972
-0.008119
-0.036625
-0.084606
-0.130506
-0.181351
-0.197877
-0.230798
-0.232332
-0.229649
-0.207440
-0.176002
-0.142033
-0.096751
-0.053678
0.007186
0.031829
0.043081
0.045420
0.032657
0.022938
-0.007822
-0.039755
-0.103087
-0.155101
-0.191485
-0.214563
-0.228563
-0.236718
-0.229115
-0.212464
-0.184658
-0.131321
-0.092941
-0.079302
-0.032294
0.008223
0.028683
0.018608
0.017012
0.057822
0.016183
-0.042822
-0.113913
-0.178166
-0.211722
-0.241592
-0.248898
-0.243794
-0.213749
-0.188672
-0.190631
-0.163878
-0.125749
-0.070804
-0.015436
0.048220
0.078378
0.058143
0.040301
-0.007326
-0.048027
-0.076739
-0.094800
-0.136954
-0.211148
-0.258692
-0.267374
-0.255166
-0.219628
-0.197129
-0.161192
-0.152406
-0.106659
-0.044266
-0.002478
0.006925
0.033615
0.043864
0.026811
-0.002050
-0.033911
-0.074798
-0.114643
-0.145425
-0.169261
-0.204316
-0.193591
-0.166093
-0.140076
-0.119667
-0.080956
-0.027750
0.032712
0.106963
0.159223
0.201470
0.244153
0.263876
0.301506
0.294738
0.277124
0.263655
0.259604
0.269946
0.257589
0.273662
0.279363
0.254442
0.290199
0.373660
0.455755
0.539966
0.610531
0.692277
0.766820
0.809727
0.870033
0.828752
0.839159
0.795324
0.736156
0.674901
0.618746
0.538378
0.450142
0.341865
0.255982
0.188811
0.139373
0.127053
0.102283
0.069694
0.105288
0.135947
0.165095
0.191192
0.188431
0.170856
0.179071
0.210144
0.139513
0.114476
0.011510
-0.036773
-0.105102
-0.143840
-0.167246
-0.178617
-0.174906
-0.138475
-0.115297
-0.038808
0.021918
0.055431
0.072162
0.101703
0.120457
0.104478
0.081693
0.051260
0.034449
-0.005923
-0.054337
-0.092725
-0.149337
-0.182880
-0.189118
-0.206553
-0.175879
-0.162595
-0.159465
-0.118468
-0.069398
-0.017032
0.027433
0.057706
0.079148
0.065132
0.064405
0.038313
0.016928
-0.020983
-0.053236
-0.110434
-0.153915
-0.182661
-0.196709
-0.191782
-0.184406
-0.187887
-0.150701
-0.106601
-0.061741
-0.022088
0.036430
0.059531
0.072254
0.068956
0.089667
0.067572
0.031369
0.013947
-0.043081
-0.111070
-0.167822
-0.181156
-0.210500
-0.216050
-0.203143
-0.166646
-0.134681
-0.099367
-0.032285
0.014377
0.045732
0.102020
0.143370
0.131105
0.095075
0.074956
0.040755
0.005141
-0.059976
-0.110372
-0.116019
-0.138087
-0.168212
-0.168920
-0.152075
-0.131157
-0.118809
-0.081190
-0.014587
0.053531
0.096190
0.105215
0.116489
0.126226
0.085767
0.064402
0.068584
0.037780
0.030643
-0.007288
-0.076014
-0.111282
-0.129949
-0.159237
-0.143002
-0.106673
-0.060130
-0.026000
0.004077
0.048977
0.104057
0.144727
0.164131
0.170586
0.164499
0.128771
0.095795
0.061334
0.018869
-0.017908
-0.066127
-0.101815
-0.127410
-0.136228
-0.088334
-0.016949
0.040971
0.056577
0.082604
0.095467
0.139563
0.162653
0.197591
0.205345
0.197759
0.180311
0.137510
0.099587
0.047775
0.003108
-0.024617
-0.060682
-0.101726
-0.115301
-0.064883
-0.040386
-0.004637
0.020236
0.056226
0.093501
0.154654
0.191120
0.213160
0.208136
0.198528
0.176675
0.143277
0.097809
0.055396
0.004398
-0.037914
-0.060786
-0.079846
-0.086604
-0.095537
-0.068565
-0.024527
0.019583
0.065188
0.100066
0.146887
0.160961
0.170056
0.185595
0.190579
0.145880
0.122012
0.065864
0.010496
-0.038783
-0.075336
-0.102252
-0.127365
-0.122041
-0.117119
-0.097843
-0.057896
-0.001486
0.036623
0.088293
0.108801
0.181757
0.203151
0.182584
0.149615
0.123611
0.066776
0.034324
-0.033280
-0.079382
-0.123890
-0.152461
-0.174773
-0.157070
-0.140593
-0.122755
-0.097233
-0.068946
-0.045231
-0.017610
0.040605
0.111227
0.102636
0.084570
0.088336
0.095979
0.045172
0.020885
-0.025277
-0.060235
-0.111183
-0.156875
-0.187200
-0.214235
-0.201252
-0.166863
-0.134294
-0.104728
-0.053956
-0.008108
0.029804
0.058741
0.080045
0.094620
0.093442
0.053392
0.022728
-0.032702
-0.099912
-0.126426
-0.128708
-0.164160
-0.193488
-0.206810
-0.197056
-0.176710
-0.148985
-0.102119
-0.049700
-0.017273
0.026978
0.065216
0.086181
0.079161
0.060292
0.031669
0.030140
-0.009442
-0.077119
-0.115550
-0.167014
-0.203977
-0.232544
-0.238077
-0.215655
-0.176040
-0.125428
-0.062263
-0.032945
0.016435
0.046575
0.076051
0.104405
0.103262
0.087766
0.048553
0.022023
-0.004432
-0.051390
-0.112604
-0.154000
-0.161514
-0.187725
-0.203453
-0.231678
-0.175687
-0.135649
-0.078242
-0.044082
0.013497
0.064914
0.094346
0.103213
0.110028
0.074343
0.034833
0.009215
-0.012250
-0.049683
-0.098219
-0.147975
-0.189657
-0.191913
-0.213204
-0.199426
-0.171389
-0.133216
-0.083833
-0.029338
0.006424
0.033187
0.065166
0.090075
0.076653
0.060824
0.051492
0.008055
-0.015928
-0.010382
-0.071274
-0.146819
-0.174574
-0.189420
-0.193775
-0.176255
-0.166629
-0.137038
-0.077011
-0.037609
0.010074
0.046458
0.063912
0.081513
0.089043
0.078386
0.061321
0.017675
-0.040873
-0.058751
-0.118411
-0.167119
-0.184099
-0.170830
-0.181149
-0.173183
-0.162128
-0.130318
-0.094891
-0.048183
0.026178
0.061122
0.066354
0.083316
0.094526
0.084355
0.082416
0.044591
-0.017221
-0.081063
-0.123683
-0.151353
-0.185865
-0.212738
-0.225998
-0.213421
-0.185879
-0.154699
-0.088987
-0.026866
0.020431
0.060720
0.083717
0.083330
0.087966
0.085857
0.042747
-0.027007
-0.085824
-0.107362
-0.090615
-0.106071
-0.150444
-0.187654
-0.215622
-0.152848
-0.149782
-0.137628
-0.103166
-0.067810
-0.024477
0.028136
0.055550
0.068407
0.075596
0.065544
0.052374
0.020932
-0.028008
-0.073874
-0.124455
-0.162594
-0.187990
-0.211600
-0.225527
-0.212435
-0.197199
-0.151295
-0.107091
-0.054862
-0.024125
0.008104
0.052301
0.086455
0.081811
0.057541
0.028722
-0.002994
-0.041824
-0.060080
-0.124348
-0.192296
-0.208826
-0.222931
-0.189946
-0.195004
-0.185602
-0.155561
-0.111586
-0.041647
0.012194
0.028805
0.041787
0.061470
0.090208
0.082349
0.052187
0.027716
-0.014315
-0.069319
-0.110784
-0.159806
-0.189010
-0.215973
-0.221459
-0.195940
-0.175762
-0.156094
-0.110992
-0.049538
0.000239
0.022882
0.057898
0.083682
0.089730
0.051562
0.072210
0.050161
-0.003968
-0.060633
-0.117017
-0.171726
-0.213441
-0.189222
-0.186362
-0.137846
-0.093799
-0.084090
-0.071498
-0.029797
0.010339
0.059612
0.088617
0.098956
0.113630
0.095452
0.068304
0.031789
-0.010771
-0.050283
-0.083305
-0.128934
-0.192551
-0.212207
-0.203288
-0.180565
-0.134324
-0.096483
-0.050138
0.003341
0.044210
0.083045
0.102166
0.145466
0.164569
0.132510
0.074557
0.054381
-0.010474
-0.017671
-0.098122
-0.158492
-0.162491
-0.149807
-0.144279
-0.148074
-0.146506
-0.119566
-0.078847
-0.053341
-0.004361
0.044059
0.066575
0.083948
0.087219
0.069933
0.051497
0.021442
-0.019242
-0.077497
-0.122994
-0.162954
-0.203241
-0.217058
-0.210219
-0.206580
-0.188658
-0.160647
-0.107916
-0.080879
-0.039387
0.004104
0.023307
0.034492
0.021603
0.017832
0.049560
0.018473
-0.049573
-0.092120
-0.133950
-0.195860
-0.222559
-0.239924
-0.244046
-0.252656
-0.225078
-0.167266
-0.139473
-0.087176
-0.030420
0.025203
0.030854
0.043100
0.032726
-0.014153
-0.022089
-0.067759
-0.063832
-0.118280
-0.122297
-0.140287
-0.191954
-0.238923
-0.245275
-0.236481
-0.194803
-0.156681
-0.115975
-0.078856
-0.056361
-0.024214
0.048131
0.121526
0.127121
0.062974
-0.001699
-0.047006
-0.051673
-0.096030
-0.149977
-0.198085
-0.257506
-0.250180
-0.258319
-0.241386
-0.222650
-0.191148
-0.146505
-0.104896
-0.057946
-0.011459
0.022817
0.043700
0.039280
0.031359
0.012108
-0.013121
-0.051843
-0.094361
-0.152133
-0.196604
-0.237369
-0.249570
-0.260801
-0.243720
-0.216362
-0.176679
-0.130182
-0.056281
0.008668
0.055890
0.096298
0.113922
0.123229
0.133516
0.134212
0.115950
0.083249
0.065185
0.031103
0.005777
-0.000548
0.018963
0.029144
0.090701
0.151134
0.220402
0.304867
0.377772
0.451098
0.527974
0.566368
0.649296
0.708247
0.744217
0.772240
0.804775
0.804626
0.759633
0.712502
0.638648
0.568316
0.554475
0.526173
0.502898
0.495374
0.503156
0.512809
0.509106
0.577257
0.566531
0.553029
0.481640
0.421913
0.315207
0.238218
0.195406
0.148234
0.105362
0.062697
0.006066
-0.032598
-0.064451
-0.091791
-0.110607
-0.090264
-0.075361
-0.036760
-0.003069
0.035176
0.079932
0.113505
0.133749
0.146631
0.136929
0.098633
0.060621
0.021271
-0.026467
-0.074521
-0.130740
-0.165105
-0.172250
-0.182083
-0.175512
-0.162406
-0.136696
-0.066915
-0.029059
0.003530
0.045368
0.075122
0.081730
0.070792
0.095770
0.077391
0.021095
-0.004283
-0.056490
-0.124356
-0.160345
-0.186802
-0.219210
-0.238116
-0.214052
-0.177851
-0.149637
-0.108993
-0.070081
-0.018048
0.018460
0.054606
0.086419
0.110207
0.108453
0.062410
0.019556
-0.009024
-0.037101
-0.093903
-0.146621
-0.199212
-0.223467
-0.227408
-0.171604
-0.166048
-0.139499
-0.118279
-0.079239
0.008168
0.082853
0.115853
0.143409
0.114427
0.084528
0.052949
0.041287
-0.001370
-0.056564
-0.132838
-0.138179
-0.132709
-0.156988
-0.185631
-0.201330
-0.173232
-0.155560
-0.095758
0.008836
0.058800
0.115072
0.105963
0.097920
0.168534
0.136646
0.119000
0.092461
0.049913
-0.004492
-0.071016
-0.116361
-0.145719
-0.138161
-0.150719
-0.129698
-0.134453
-0.089651
-0.043046
-0.000392
0.047771
0.097595
0.133195
0.154218
0.172573
0.149603
0.128902
0.089168
0.055185
0.018760
-0.015808
-0.070473
-0.113393
-0.130482
-0.128014
-0.115782
-0.078542
-0.052069
-0.003831
0.043562
0.091295
0.126035
0.159656
0.186505
0.201702
0.191550
0.169851
0.131039
0.092484
0.056950
0.011912
-0.039044
-0.062074
-0.081300
-0.086423
-0.087705
-0.065471
-0.013153
0.032037
0.066391
0.116626
0.163541
0.188024
0.202336
0.208661
0.194593
0.180140
0.146047
0.110435
0.061447
0.027204
-0.009747
-0.066807
-0.069961
-0.080999
-0.090148
-0.078890
-0.052587
0.059754
0.078480
0.090695
0.170224
0.250240
0.228368
0.215368
0.190586
0.178572
0.137539
0.105440
0.052029
0.007676
-0.061338
-0.116259
-0.120557
-0.144275
-0.162601
-0.129450
-0.008560
0.087196
0.123170
0.121223
0.128149
0.150512
0.179670
0.181146
0.190053
0.170690
0.111204
0.043015
-0.007822
-0.037520
-0.073737
-0.119469
-0.125070
-0.147967
-0.154059
-0.132104
-0.107754
-0.058341
-0.016148
0.056919
0.075993
0.103770
0.157230
0.169431
0.137314
0.096820
0.041308
0.012285
-0.031092
-0.082781
-0.129084
-0.159478
-0.168165
-0.165215
-0.165887
-0.153858
-0.122665
-0.094718
-0.049320
-0.012259
0.028780
0.072727
0.099251
0.126296
0.101429
0.068210
0.023234
-0.017670
-0.069519
-0.114745
-0.147461
-0.181858
-0.190222
-0.189995
-0.203336
-0.142821
-0.112731
-0.065683
-0.028633
0.013140
0.050802
0.068661
0.078663
0.078332
0.044549
0.077561
0.048400
-0.032099
-0.065147
-0.127875
-0.170188
-0.186414
-0.179239
-0.213548
-0.195567
-0.188755
-0.151457
-0.122094
-0.055842
-0.005498
0.014279
0.059275
0.090795
0.099204
0.122634
0.087005
0.042770
-0.022834
-0.077893
-0.131548
-0.160461
-0.153111
-0.168888
-0.201983
-0.209027
-0.176131
-0.127646
-0.069238
-0.032659
0.003175
0.041241
0.079395
0.090547
0.104587
0.088083
0.068939
0.046163
0.003523
-0.041850
-0.104334
-0.143087
-0.173638
-0.188615
-0.200996
-0.208251
-0.195407
-0.125815
-0.058684
-0.039242
-0.016432
0.035178
0.123709
0.114909
0.106942
0.078999
0.050126
0.045147
0.039122
-0.028006
-0.109750
-0.123373
-0.157424
-0.189671
-0.210047
-0.189708
-0.156677
-0.119910
-0.059612
-0.017356
0.022206
0.060577
0.097762
0.112780
0.111454
0.089147
0.054809
0.028770
0.004718
-0.033546
-0.087775
-0.153946
-0.176012
-0.186030
-0.175224
-0.176702
-0.137183
-0.126627
-0.110268
-0.052475
-0.008591
0.022109
0.099055
0.097671
0.101464
0.103305
0.068718
0.023937
0.001456
-0.053009
-0.109809
-0.156148
-0.189284
-0.199987
-0.206251
-0.207329
-0.187462
-0.166211
-0.135594
-0.086938
-0.012493
0.035839
0.049219
0.085472
0.125192
0.118665
0.086160
0.052902
0.004954
-0.051523
-0.108392
-0.151455
-0.193594
-0.203932
-0.213466
-0.176485
-0.179179
-0.139620
-0.096077
-0.048859
0.011686
0.050016
0.063507
0.075806
0.108370
0.097508
0.054893
0.023563
-0.010658
-0.060886
-0.122614
-0.163552
-0.186011
-0.195264
-0.208295
-0.201179
-0.164954
-0.137039
-0.138414
-0.083533
-0.025623
0.004381
0.019342
0.090419
0.125269
0.140198
0.066195
0.015689
-0.040188
-0.071997
-0.072783
-0.127594
-0.182986
-0.213430
-0.214972
-0.216993
-0.184893
-0.120602
-0.084010
-0.064725
-0.030469
0.002425
0.050923
0.074275
0.083017
0.071073
0.046521
0.005173
-0.036808
-0.093416
-0.106848
-0.150245
-0.196414
-0.218740
-0.220507
-0.207796
-0.191121
-0.176340
-0.133752
-0.084539
-0.032613
0.002988
0.073264
0.133836
0.126665
0.085410
0.058700
0.022153
-0.009135
-0.059355
-0.098629
-0.119675
-0.147226
-0.176395
-0.194241
-0.187716
-0.153280
-0.120062
-0.082232
-0.036417
0.024379
0.056553
0.092608
0.146553
0.151366
0.102902
0.070524
0.030813
-0.012853
-0.052105
-0.095530
-0.123619
-0.162632
-0.182621
-0.187275
-0.168292
-0.147974
-0.111494
-0.055058
-0.016531
0.015602
0.118307
0.150447
0.163416
0.157805
0.146331
0.116516
0.085595
0.030278
-0.031154
-0.061483
-0.107021
-0.150860
-0.156378
-0.156383
-0.160298
-0.172052
-0.131037
-0.103416
-0.049864
-0.001577
0.058399
0.100616
0.109284
0.109834
0.100000
0.064226
0.023958
-0.026683
-0.070866
-0.126153
-0.154547
-0.176898
-0.208261
-0.219911
-0.203813
-0.173127
-0.155772
-0.100249
-0.049750
-0.024331
0.016334
0.034128
0.052461
0.028406
0.063159
0.020959
-0.003055
-0.047233
-0.103490
-0.136828
-0.165088
-0.199547
-0.231991
-0.237074
-0.226477
-0.203859
-0.144707
-0.105053
-0.068864
-0.039168
-0.006899
0.019898
0.048985
0.053451
0.047374
0.017904
-0.023772
-0.076106
-0.117866
-0.138053
-0.183262
-0.219106
-0.252892
-0.271202
-0.256793
-0.207767
-0.151762
-0.123167
-0.068165
-0.041988
-0.005924
0.017927
0.036743
0.042562
0.063607
0.044116
0.015837
-0.050569
-0.098214
-0.139346
-0.175472
-0.206078
-0.241079
-0.251717
-0.241342
-0.202946
-0.180941
-0.147298
-0.106786
-0.062656
-0.001404
0.042750
0.042580
0.031044
0.040820
0.007947
-0.030713
-0.049172
-0.085922
-0.139043
-0.187355
-0.220006
-0.241215
-0.209997
-0.209777
-0.186621
-0.194698
-0.164261
-0.121962
-0.065819
-0.007557
0.038615
0.060860
0.063085
0.077903
0.063888
0.035062
-0.003203
-0.025980
-0.081134
-0.063070
-0.089373
-0.115843
-0.114384
-0.097405
-0.016528
0.054688
0.133415
0.196276
0.234144
0.328937
0.416974
0.482558
0.526481
0.535622
0.536247
0.525303
0.523701
0.509026
0.500803
0.472786
0.467247
0.553607
0.592436
0.601249
0.578751
0.610056
0.654000
0.695451
0.725432
0.736169
0.765801
0.824547
0.778352
0.685061
0.579149
0.457690
0.361979
0.278667
0.188119
0.086006
0.010475
-0.010788
-0.045288
-0.050824
-0.024933
0.001747
0.028870
0.065489
0.111607
0.135605
0.148303
0.159511
0.149656
0.150179
0.110382
0.073383
0.038304
-0.004357
-0.045816
-0.096784
-0.144260
-0.181973
-0.186426
-0.178904
-0.137521
-0.100735
-0.057621
-0.024737
0.004741
0.048952
0.091945
0.099486
0.106501
0.094146
0.065822
0.033732
-0.003703
-0.052498
-0.112004
-0.148138
-0.171892
-0.187071
-0.198346
-0.187506
-0.152043
-0.131555
-0.104200
-0.054525
-0.004782
0.030491
0.053420
0.075042
0.092921
0.076432
0.052020
0.030596
-0.004130
-0.058934
-0.094970
-0.112589
-0.162238
-0.189194
-0.231719
-0.209119
-0.197570
-0.150284
-0.095424
-0.062985
0.012302
0.076442
0.112942
0.103914
0.120049
0.130785
0.081475
0.022182
-0.031611
-0.063560
-0.079707
-0.098625
-0.137398
-0.162857
-0.187110
-0.126624
-0.135498
-0.118823
-0.082344
-0.038796
0.021308
0.063940
0.099935
0.119813
0.120894
0.110515
0.079414
0.056014
0.017499
-0.042304
-0.088946
-0.120275
-0.151098
-0.155533
-0.132798
-0.101489
-0.090877
-0.075582
-0.028510
0.004786
0.030050
0.099707
0.142215
0.156581
0.147328
0.161552
0.122841
0.085494
0.055022
0.020691
-0.030607
-0.075234
-0.113996
-0.124179
-0.123830
-0.124583
-0.109096
-0.068822
-0.015942
0.044132
0.096002
0.124868
0.166936
0.200112
0.203502
0.201262
0.179724
0.141084
0.104277
0.057958
0.005920
-0.038135
-0.071312
-0.091503
-0.093947
-0.093691
-0.076382
-0.007827
0.064042
0.114574
0.105080
0.129385
0.189440
0.218335
0.209479
0.203417
0.195154
0.164458
0.126814
0.078940
0.021880
-0.026630
-0.069265
-0.085613
-0.090800
-0.056193
-0.016508
0.013062
0.041378
0.078201
0.126830
0.166555
0.190574
0.216612
0.207283
0.196764
0.167257
0.145647
0.084489
0.047350
0.015711
-0.022084
-0.064314
-0.090986
-0.081133
-0.081779
-0.082074
-0.015068
0.018939
0.043941
0.072896
0.138039
0.178143
0.218297
0.211255
0.190403
0.154365
0.138616
0.099199
0.064266
-0.000187
-0.065449
-0.107727
-0.141396
-0.146567
-0.143820
-0.116701
-0.075618
-0.007246
0.035749
0.065068
0.098498
0.133568
0.171867
0.183576
0.163682
0.117580
0.096794
0.043471
-0.006069
-0.056642
-0.103989
-0.126405
-0.135448
-0.159032
-0.149818
-0.127537
-0.095212
-0.066029
-0.028459
0.036230
0.057093
0.070956
0.094718
0.099197
0.104679
0.079694
0.044995
0.002770
-0.049314
-0.098099
-0.138169
-0.164492
-0.182216
-0.199418
-0.198030
-0.164717
-0.126461
-0.081344
-0.035482
0.014512
0.052540
0.064140
0.082626
0.086750
0.092178
0.072156
0.063474
0.009975
-0.050297
-0.094905
-0.159026
-0.181113
-0.193226
-0.190384
-0.197708
-0.167245
-0.136977
-0.092095
-0.040628
-0.019562
0.020054
0.098100
0.115623
0.107803
0.102733
0.122575
0.108440
0.014214
-0.046965
-0.092841
-0.138341
-0.161797
-0.169168
-0.164676
-0.173059
-0.176337
-0.155018
-0.113436
-0.030783
0.026310
0.063525
0.101229
0.110539
0.114933
0.103074
0.093376
0.064121
0.016454
-0.039267
-0.088537
-0.128900
-0.161506
-0.172000
-0.176721
-0.156497
-0.154725
-0.124117
-0.081868
-0.031086
0.007422
0.058883
0.094547
0.108969
0.104304
0.091750
0.074196
0.044370
-0.005804
-0.036587
-0.071006
-0.117430
-0.166209
-0.199460
-0.191582
-0.184475
-0.139545
-0.094998
-0.059535
-0.017377
0.018936
0.060574
0.097574
0.118877
0.117651
0.119680
0.088396
0.047666
-0.002044
-0.052192
-0.087215
-0.135872
-0.163739
-0.179453
-0.203546
-0.164772
-0.156821
-0.121315
-0.047569
0.010743
0.040573
0.081553
0.125491
0.123694
0.124498
0.084118
0.054686
0.040393
0.029688
0.006996
-0.051400
-0.127778
-0.181031
-0.203195
-0.176072
-0.147413
-0.159300
-0.097952
-0.043920
0.015303
0.041627
0.083431
0.079487
0.087396
0.102982
0.103549
0.087977
0.037059
-0.009046
-0.049776
-0.090956
-0.129871
-0.143327
-0.163283
-0.190758
-0.192714
-0.169104
-0.143354
-0.092100
-0.045462
0.003190
0.052769
0.086311
0.110561
0.123194
0.113614
0.086970
0.044389
-0.010905
-0.049299
-0.115305
-0.139172
-0.180128
-0.187946
-0.206732
-0.189261
-0.164559
-0.132665
-0.089046
-0.039216
0.016901
0.055615
0.082401
0.102990
0.114466
0.120303
0.088702
0.054590
-0.004542
-0.048901
-0.104577
-0.147247
-0.184264
-0.202819
-0.207455
-0.183849
-0.171502
-0.147527
-0.095048
-0.045733
-0.003420
0.048513
0.071199
0.090839
0.109978
0.095067
0.069629
0.037444
0.004356
-0.027300
-0.072764
-0.126450
-0.176021
-0.205591
-0.182000
-0.168759
-0.155055
-0.134379
-0.100130
-0.070627
-0.034036
0.033299
0.127460
0.148799
0.135249
0.107245
0.069744
-0.001817
-0.022540
-0.024966
-0.083935
-0.146186
-0.186080
-0.218676
-0.216891
-0.200448
-0.171383
-0.127085
-0.073776
-0.043156
-0.003131
0.030786
0.068194
0.116172
0.117220
0.110298
0.084591
0.068553
0.022245
-0.029357
-0.089436
-0.129764
-0.151910
-0.176001
-0.174434
-0.173812
-0.153481
-0.105646
-0.035960
0.014111
0.055804
0.073437
0.122138
0.138949
0.141921
0.140289
0.098713
0.047751
0.017446
-0.010212
-0.045915
-0.104777
-0.150622
-0.191985
-0.186178
-0.180956
-0.138521
-0.075338
-0.043113
0.009509
0.057050
0.092820
0.120274
0.170812
0.160946
0.146596
0.122513
0.075777
0.042147
0.010327
-0.037829
-0.072088
-0.103800
-0.114553
-0.143096
-0.126138
-0.126007
-0.119081
-0.068358
0.014889
0.052401
0.059248
0.062798
0.064542
0.107443
0.117816
0.096612
0.071593
0.009045
-0.033852
-0.072071
-0.100103
-0.162420
-0.185585
-0.191189
-0.181350
-0.166747
-0.134276
-0.057194
-0.031003
-0.002830
0.048493
0.092201
0.110282
0.116755
0.091724
0.063007
0.011576
-0.049360
-0.081134
-0.104974
-0.150899
-0.179331
-0.208862
-0.206440
-0.210652
-0.212189
-0.166953
-0.108572
-0.055873
-0.029746
0.041605
0.067224
0.085093
0.081649
0.066686
0.040838
0.015806
-0.035069
-0.105407
-0.126203
-0.155635
-0.182745
-0.207924
-0.204871
-0.218455
-0.194208
-0.161095
-0.107808
-0.072212
-0.027660
0.005186
0.046766
0.082345
0.107440
0.087561
0.053003
0.011702
-0.018535
-0.057503
-0.067768
-0.125477
-0.201084
-0.249261
-0.259822
-0.237475
-0.182206
-0.130688
-0.096407
-0.081606
-0.052933
-0.004300
0.041550
0.078671
0.099672
0.069760
0.018875
-0.005191
-0.010291
-0.066996
-0.119524
-0.170270
-0.209673
-0.238589
-0.263554
-0.279342
-0.270588
-0.115157
-0.006798
0.011128
0.017054
0.034153
0.085016
0.097450
0.096118
0.142296
0.102058
0.059582
0.045883
0.002605
-0.043368
-0.070974
-0.089770
-0.102424
-0.064087
-0.004880
0.039265
0.087502
0.142686
0.217398
0.280809
0.353783
0.410025
0.489095
0.544324
0.510047
0.510117
0.525878
0.529002
0.528789
0.521205
0.522607
0.498289
0.487084
0.523580
0.595859
0.596194
0.596658
0.631117
0.675103
0.706740
0.732590
0.740577
0.734876
0.672151
0.597732
0.511280
0.423627
0.329093
0.228788
0.140653
0.031363
-0.020825
-0.054636
-0.062927
-0.060352
-0.041844
-0.016694
0.012634
0.068266
0.105465
0.142361
0.161232
0.176786
0.169169
0.157371
0.137463
0.098298
0.055400
0.004555
-0.048659
-0.089077
-0.121491
-0.139956
-0.144543
-0.156489
-0.138040
-0.093528
-0.054165
-0.011279
0.040022
0.078362
0.094013
0.122067
0.130516
0.134823
0.099753
0.044063
-0.018905
-0.062880
-0.063854
-0.097612
-0.139389
-0.191857
-0.211881
-0.204287
-0.153759
-0.108907
-0.068683
-0.025717
0.016979
0.055599
0.099491
0.118864
0.131288
0.112747
0.088202
0.050631
0.011164
-0.028095
-0.077254
-0.121185
-0.141446
-0.162921
-0.168815
-0.173593
-0.144938
-0.091642
-0.044378
-0.018714
0.027817
0.057453
0.085212
0.102194
0.132221
0.116458
0.095737
0.057855
0.015890
-0.031622
-0.077714
-0.124684
-0.152524
-0.170343
-0.164935
-0.159480
-0.152552
-0.088867
-0.040718
0.005803
0.046051
0.096539
0.110282
0.128800
0.143432
0.148494
0.125684
0.093545
0.078727
0.015906
-0.024831
-0.060314
-0.100966
-0.138065
-0.135662
-0.136998
-0.127721
-0.069953
-0.015645
0.026841
0.062782
0.092802
0.133907
0.173309
0.189416
0.180821
0.165157
0.128256
0.097198
0.040001
-0.033576
-0.051847
-0.069967
-0.101980
-0.100489
-0.074176
-0.064384
-0.024204
0.034105
0.074541
0.103062
0.141225
0.183998
0.204050
0.209703
0.201846
0.185671
0.143467
0.105592
0.051999
0.017920
-0.019772
-0.052425
-0.082515
-0.076871
-0.057153
-0.029179
0.016023
0.070996
0.116738
0.152008
0.190439
0.219164
0.237240
0.248620
0.230197
0.209120
0.188177
0.133366
0.078692
0.034000
-0.007739
-0.051946
-0.053414
-0.046795
-0.038964
-0.035083
-0.029647
0.004515
0.082809
0.185330
0.230823
0.275946
0.290107
0.266768
0.249884
0.208734
0.154758
0.113730
0.061091
0.006375
0.002385
-0.016458
-0.056955
-0.083207
-0.069134
-0.064918
-0.012052
0.041543
0.090646
0.135617
0.163289
0.181865
0.199459
0.195973
0.191352
0.184631
0.150677
0.110138
0.057790
-0.003922
-0.059194
-0.090468
-0.066149
-0.082134
-0.084057
-0.068891
-0.044272
-0.000359
0.045065
0.083109
0.131577
0.201136
0.201032
0.165627
0.162994
0.147714
0.091312
0.052286
-0.000129
-0.058134
-0.084143
-0.089334
-0.126624
-0.144473
-0.133126
-0.101678
-0.063191
-0.044774
0.013121
0.032093
0.055308
0.096305
0.095414
0.141767
0.133438
0.099806
0.058046
-0.002536
-0.045201
-0.076797
-0.110847
-0.151932
-0.181700
-0.192908
-0.188069
-0.155982
-0.099296
-0.069535
-0.022848
0.069967
0.102164
0.070561
0.098421
0.108123
0.092338
0.081570
0.078445
0.029959
-0.057311
-0.113146
-0.157659
-0.138095
-0.126009
-0.151524
-0.179177
-0.143486
-0.110640
-0.068038
-0.036988
0.012579
0.046249
0.101242
0.114712
0.129362
0.111819
0.122979
0.051074
0.015017
-0.024782
-0.068509
-0.123222
-0.133579
-0.158615
-0.164055
-0.165598
-0.153649
-0.095298
-0.056439
-0.032442
0.004731
0.034392
0.090775
0.126028
0.144262
0.110081
0.067533
0.046059
-0.004431
-0.045334
-0.088406
-0.139718
-0.152019
-0.169175
-0.180604
-0.167936
-0.140469
-0.104532
-0.062759
-0.021228
0.018388
0.065761
0.113086
0.122218
0.130540
0.107339
0.083811
0.023340
0.031227
0.000878
-0.058658
-0.093399
-0.159081
-0.178628
-0.192365
-0.192523
-0.140106
-0.115253
-0.072812
-0.011971
0.033063
0.081868
0.117146
0.146160
0.167970
0.168668
0.113322
0.052030
-0.015963
-0.012331
-0.058302
-0.112339
-0.155496
-0.173350
-0.166179
-0.148264
-0.141070
-0.120917
-0.083508
-0.030575
0.012439
0.072378
0.107669
0.120679
0.112938
0.108842
0.086187
0.042285
-0.012437
-0.025394
-0.023820
-0.104067
-0.159795
-0.182961
-0.187120
-0.179144
-0.161407
-0.112741
-0.053617
-0.007700
0.023709
0.064683
0.071047
0.085791
0.100864
0.085474
0.068300
0.043178
0.017652
-0.014155
-0.069931
-0.125906
-0.171473
-0.178755
-0.189584
-0.187814
-0.173119
-0.135346
-0.068217
-0.025564
-0.002794
0.049933
0.089384
0.103305
0.128311
0.127302
0.096902
0.052238
0.006388
-0.049188
-0.111536
-0.152908
-0.199566
-0.218373
-0.183420
-0.171224
-0.142147
-0.110102
-0.077129
-0.052698
-0.027695
0.006743
0.085478
0.121839
0.142969
0.136336
0.081296
0.033138
-0.017618
-0.062516
-0.087992
-0.126959
-0.173266
-0.217438
-0.235372
-0.167803
-0.158456
-0.126572
-0.087621
-0.043753
0.014854
0.051954
0.071650
0.079112
0.088116
0.072889
0.053895
0.063609
0.011585
-0.045256
-0.095317
-0.125975
-0.151691
-0.190404
-0.205034
-0.197119
-0.175149
-0.145299
-0.100056
-0.053175
-0.003910
0.030600
0.067790
0.097598
0.096015
0.086060
0.065326
0.042701
0.006545
-0.049930
-0.115908
-0.147595
-0.162307
-0.177572
-0.194084
-0.184125
-0.171935
-0.144267
-0.100345
-0.049456
-0.003475
0.036683
0.066278
0.091730
0.113146
0.090816
0.077331
0.067044
-0.005087
-0.047963
-0.079627
-0.102301
-0.101303
-0.142074
-0.172021
-0.159934
-0.166409
-0.149587
-0.100331
0.038561
0.100406
0.113540
0.125092
0.130270
0.139791
0.107107
0.083494
0.058340
0.008729
-0.027636
-0.101239
-0.144903
-0.169520
-0.186711
-0.185368
-0.155480
-0.094107
-0.068284
0.013305
0.032380
0.039457
0.058111
0.140959
0.189331
0.168849
0.152804
0.159683
0.115518
0.072173
0.000392
-0.053042
-0.090870
-0.118212
-0.151533
-0.178771
-0.159437
-0.122942
-0.073763
-0.029826
0.013447
0.052726
0.057673
0.067276
0.085070
0.112022
0.104382
0.068416
0.038074
-0.000661
-0.048402
-0.115202
-0.157584
-0.176308
-0.205676
-0.212174
-0.194915
-0.181208
-0.148992
-0.105746
-0.042948
-0.005974
0.040235
0.071180
0.086483
0.084049
0.077217
0.056432
0.027655
-0.026954
-0.070221
-0.128721
-0.178722
-0.211835
-0.222323
-0.240852
-0.227821
-0.200430
-0.166375
-0.127084
-0.076567
-0.023980
0.006559
0.045886
0.057809
0.069307
0.063427
0.043142
0.011220
-0.030151
-0.086454
-0.136200
-0.178902
-0.217271
-0.224220
-0.247278
-0.260624
-0.236905
-0.177124
-0.113541
-0.101523
-0.072909
-0.023164
0.073458
0.107639
0.110860
0.108512
0.044882
-0.018106
-0.041188
-0.107266
-0.172772
-0.226853
-0.161637
-0.125299
-0.164733
-0.192150
-0.198302
-0.166335
-0.132480
-0.082743
-0.025175
0.020763
0.028238
0.052140
0.056344
0.042025
0.052860
0.027454
-0.017980
-0.087016
-0.130345
-0.164882
-0.199920
-0.229450
-0.246115
-0.233757
-0.212358
-0.170238
-0.100563
-0.043854
-0.007412
0.030662
0.077796
0.105305
0.122315
0.121800
0.125548
0.115057
0.081538
0.031814
0.005556
-0.029265
-0.050712
-0.035785
-0.020935
-0.000824
0.049527
0.124631
0.190488
0.263793
0.359990
0.429640
0.492863
0.544072
0.574932
0.574390
0.593435
0.603012
0.596075
0.581759
0.562683
0.543449
0.547966
0.520085
0.508854
0.528225
0.621497
0.638189
0.646131
0.660179
0.606711
0.599958
0.593053
0.584820
0.528248
0.451435
0.373853
0.299352
0.198026
0.121719
0.042015
-0.028787
-0.088460
-0.111820
-0.103030
-0.083246
-0.094079
-0.079895
-0.049511
0.001011
0.078883
0.142413
0.177663
0.167889
0.140741
0.130249
0.125745
0.109066
0.032656
-0.033581
-0.096265
-0.118540
-0.147189
-0.182356
-0.200974
-0.184242
-0.160004
-0.113116
-0.078206
-0.021425
0.032796
0.067303
0.080249
0.096540
0.109348
0.088950
0.086586
0.043010
-0.017527
-0.072540
-0.094026
-0.129345
-0.175733
-0.206185
-0.218687
-0.207021
-0.174069
-0.120471
-0.094685
-0.073568
-0.028942
0.029383
0.054491
0.085645
0.096543
0.083362
0.079289
0.065874
-0.014051
-0.046227
-0.077002
-0.089787
-0.121269
-0.170575
-0.179234
-0.183373
-0.156997
-0.127258
-0.067319
-0.032975
0.014422
0.048694
0.051431
0.130277
0.144114
0.125416
0.116766
0.080958
0.021195
-0.047161
-0.079628
-0.132608
-0.167425
-0.166691
-0.179047
-0.152572
-0.127855
-0.089365
-0.054036
-0.020020
0.014947
0.057320
0.105158
0.140950
0.127204
0.103388
0.117721
0.102126
0.028611
-0.049941
-0.049533
-0.077009
-0.134526
-0.149685
-0.166977
-0.159649
-0.116272
-0.084380
-0.051744
0.015627
0.075575
0.117854
0.150186
0.150479
0.152856
0.140497
0.121399
0.113343
0.070413
0.013740
-0.004423
-0.039485
-0.091089
-0.111567
-0.128675
-0.117277
-0.096093
-0.060521
0.000471
0.034630
0.062683
0.112428
0.182973
0.238751
0.265764
0.210510
0.150181
0.188017
0.168303
0.090125
-0.008207
-0.073430
-0.043110
-0.034655
-0.067001
-0.065595
-0.050415
-0.017236
0.015576
0.052427
0.106377
0.180203
0.254561
0.264839
0.248934
0.231187
0.188555
0.160731
0.121185
0.084609
0.032542
-0.049441
-0.082605
-0.089523
-0.099286
-0.080890
-0.048755
-0.006656
0.038844
0.081085
0.119932
0.168067
0.191770
0.211887
0.220681
0.210122
0.185175
0.154085
0.120079
0.058724
-0.021614
-0.047008
-0.058962
-0.087964
-0.112849
-0.103930
-0.081120
-0.048631
0.006637
0.046514
0.090446
0.121852
0.150772
0.160247
0.141970
0.134056
0.132014
0.175837
0.149204
0.075096
-0.032292
-0.088067
-0.128011
-0.123402
-0.124591
-0.138903
-0.122021
-0.084235
-0.037627
-0.008337
0.036166
0.079895
0.109165
0.126787
0.148728
0.141882
0.122416
0.076692
0.022700
-0.030270
-0.081164
-0.132494
-0.159726
-0.208636
-0.226066
-0.146888
-0.150960
-0.137532
-0.068135
0.029064
0.043985
0.047231
0.057962
0.111089
0.128937
0.108475
0.075875
0.034605
0.010765
-0.028839
-0.077601
-0.140979
-0.162815
-0.163827
-0.174010
-0.175168
-0.165825
-0.127482
-0.070239
-0.035729
-0.010378
0.045191
0.095977
0.099322
0.102455
0.085047
0.044503
0.015504
-0.018204
-0.060149
-0.059782
-0.102339
-0.179444
-0.221409
-0.225801
-0.210308
-0.201353
-0.140560
-0.087105
-0.054758
-0.057464
-0.023884
0.022594
0.108725
0.146180
0.141786
0.090139
0.048387
-0.003350
-0.056205
-0.112304
-0.154631
-0.178633
-0.179321
-0.171174
-0.182289
-0.189809
-0.155840
-0.108104
-0.051610
0.011838
0.051937
0.061672
0.077574
0.090324
0.071548
0.067280
0.032603
-0.019747
-0.077942
-0.111150
-0.142618
-0.174269
-0.195322
-0.201508
-0.137760
-0.132255
-0.119331
-0.069370
-0.030017
0.001465
0.046110
0.085975
0.102672
0.125960
0.082615
0.074572
0.030480
-0.019929
-0.082047
-0.105074
-0.132486
-0.151062
-0.181124
-0.188289
-0.180573
-0.160891
-0.130649
-0.088032
-0.035076
0.022661
0.064974
0.081143
0.116644
0.133031
0.106623
0.062933
0.066621
0.048162
-0.006984
-0.107162
-0.163403
-0.198820
-0.202531
-0.199617
-0.197281
-0.181151
-0.155142
-0.110136
-0.061418
0.042463
0.071407
0.075614
0.091802
0.102491
0.095818
0.061198
0.042655
-0.013598
-0.084862
-0.138875
-0.199371
-0.210788
-0.162867
-0.150351
-0.172476
-0.145478
-0.104516
-0.076055
-0.042044
0.005181
0.043814
0.086702
0.090547
0.101434
0.082051
0.064069
0.015728
-0.028469
-0.068089
-0.088434
-0.110733
-0.137633
-0.175302
-0.191810
-0.186088
-0.162127
-0.116849
-0.081308
-0.062809
-0.037742
0.003702
0.030256
0.043438
0.059474
0.106777
0.122266
0.063420
-0.031346
-0.095816
-0.135999
-0.142753
-0.164041
-0.190742
-0.226181
-0.208309
-0.156792
-0.122080
-0.085177
-0.052749
-0.019455
0.020204
0.057011
0.108331
0.105594
0.076019
0.030951
0.005481
-0.032095
-0.079919
-0.112722
-0.159720
-0.190258
-0.213632
-0.235281
-0.234771
-0.222463
-0.185841
-0.124325
-0.050909
0.009118
0.059610
0.085597
0.102972
0.113478
0.106784
0.078644
0.046080
-0.010622
-0.059214
-0.105578
-0.137594
-0.180414
-0.197352
-0.209357
-0.204646
-0.183901
-0.165037
-0.136510
-0.047961
0.010613
0.040738
0.087049
0.125769
0.164451
0.165059
0.113179
0.051395
0.019247
-0.003341
-0.067183
-0.125884
-0.172434
-0.203790
-0.207747
-0.190056
-0.163151
-0.118365
-0.073954
-0.030552
0.018106
0.052930
0.088707
0.114653
0.127201
0.125169
0.094114
0.064648
0.013350
-0.044509
-0.085218
-0.117517
-0.148357
-0.153883
-0.153409
-0.165213
-0.127703
-0.066095
-0.062942
-0.028740
0.023675
0.060032
0.099825
0.144468
0.147379
0.101187
0.070318
0.054385
0.009245
-0.047807
-0.112313
-0.203998
-0.184311
-0.196635
-0.229337
-0.194724
-0.168447
-0.145563
-0.102114
-0.056125
-0.012611
0.037856
0.046891
0.064523
0.094344
0.073081
0.027553
-0.001273
-0.049626
-0.107017
-0.159049
-0.182355
-0.213673
-0.240209
-0.255406
-0.250242
-0.243819
-0.194758
-0.151168
-0.117308
-0.074247
-0.030157
0.014072
0.027716
0.032763
0.019628
-0.013815
-0.053953
-0.082300
-0.134011
-0.184209
-0.208522
-0.189221
-0.146995
-0.175186
-0.218640
-0.210816
-0.178626
-0.139878
-0.072427
-0.044091
-0.028645
0.011363
0.037931
0.038338
0.028787
-0.002283
-0.032083
-0.075420
-0.134903
-0.178847
-0.226961
-0.250283
-0.265148
-0.274399
-0.266205
-0.234435
-0.190351
-0.161039
-0.102103
-0.061162
-0.013609
0.027404
0.043451
0.055070
0.040868
0.007809
-0.038350
-0.092275
-0.151484
-0.197117
-0.236055
-0.253312
-0.249027
-0.263976
-0.259215
-0.243638
-0.198971
-0.137319
-0.076052
-0.042004
-0.021143
0.013685
0.054145
0.084540
0.091568
0.106837
0.079470
0.061106
0.009929
-0.050424
-0.078968
-0.104337
-0.109894
-0.079444
-0.041618
-0.015539
0.046618
0.109547
0.197793
0.291496
0.365572
0.422268
0.466401
0.498536
0.520606
0.528185
0.517250
0.504239
0.505502
0.490569
0.486053
0.510498
0.552750
0.548671
0.556864
0.598361
0.602870
0.633000
0.688223
0.710843
0.758706
0.782184
0.804840
0.765275
0.643463
0.494666
0.392624
0.323891
0.211303
0.102931
0.028149
-0.031547
-0.100610
-0.132637
-0.144112
-0.120192
-0.090149
-0.042818
-0.003180
0.037329
0.086388
0.116427
0.133229
0.132365
0.119905
0.076865
0.062317
0.010549
-0.068870
-0.109415
-0.159206
-0.189653
-0.221941
-0.223813
-0.206485
-0.177305
-0.123667
-0.087146
-0.040631
0.022988
0.078268
0.097928
0.066265
0.076142
0.071129
0.031527
0.004781
-0.033189
-0.085275
-0.138872
-0.187737
-0.220101
-0.241101
-0.242240
-0.233863
-0.207414
-0.160400
-0.131786
-0.087761
-0.050917
-0.007564
0.028168
0.068406
0.075784
0.066825
0.037696
-0.002389
-0.065324
-0.109529
-0.149061
-0.168271
-0.199516
-0.214643
-0.208278
-0.207209
-0.205404
-0.148230
-0.099234
-0.075641
-0.027920
0.017407
0.044676
0.076194
0.118018
0.083127
0.039436
0.007141
-0.030434
-0.085152
-0.133935
-0.174321
-0.188988
-0.208864
-0.217572
-0.215709
-0.198258
-0.166372
-0.135349
-0.099738
-0.057506
-0.022302
0.042419
0.149601
0.158813
0.155760
0.060109
0.017017
-0.018364
-0.052292
-0.106873
-0.134769
-0.152956
-0.186079
-0.198506
-0.201546
-0.178396
-0.155987
-0.103713
-0.038892
0.012428
0.066713
0.080667
0.073098
0.110418
0.121560
0.064142
0.019946
0.009804
0.004737
-0.014032
-0.119705
-0.159027
-0.177459
-0.182516
-0.176501
-0.149258
-0.096080
-0.036659
0.020583
0.059965
0.079625
0.101334
0.143748
0.171686
0.160674
0.127227
0.084377
0.046429
0.000616
-0.043936
-0.086108
-0.120607
-0.142668
-0.160058
-0.142065
-0.109511
-0.067094
-0.033106
0.009483
0.063501
0.105112
0.137916
0.158609
0.163226
0.141507
0.117383
0.086319
0.053489
0.028478
-0.007424
-0.044241
-0.075202
-0.110456
-0.140145
-0.163164
-0.131652
-0.084101
-0.044955
0.001539
0.046670
0.090143
0.117564
0.147099
0.158434
0.162285
0.134992
0.087192
0.029949
-0.018994
-0.060965
-0.097161
-0.106625
-0.125861
-0.121183
-0.111446
-0.116867
-0.077805
-0.036683
-0.010063
0.008134
0.057949
0.106013
0.112348
0.092798
0.092350
0.087158
0.033761
-0.012870
-0.050403
-0.102496
-0.153090
-0.187790
-0.202279
-0.212347
-0.191796
-0.166935
-0.092928
-0.087021
-0.072355
-0.007602
0.038352
0.059233
0.073359
0.078518
0.067827
0.043035
0.021191
-0.029881
-0.088480
-0.133993
-0.188816
-0.217630
-0.234995
-0.242535
-0.234443
-0.204777
-0.156038
-0.116250
-0.092023
-0.040686
0.020800
0.057098
0.056081
0.055347
0.046078
0.021890
-0.005221
-0.059078
-0.106327
-0.154033
-0.195250
-0.254127
-0.262612
-0.271947
-0.288484
-0.301571
-0.256686
-0.058156
0.000715
0.026446
0.041093
0.036906
0.028235
0.055115
0.086944
0.087733
-0.003904
-0.074727
-0.144415
-0.191101
-0.229299
-0.263698
-0.288649
-0.283429
-0.277943
-0.258026
-0.212209
-0.167784
-0.111035
-0.077895
-0.024994
0.006460
0.037283
0.052639
0.050837
0.019504
-0.018883
-0.080817
-0.146070
-0.175334
-0.211075
-0.258458
-0.248849
-0.247758
-0.227500
-0.230528
-0.197753
-0.150419
-0.094643
-0.052766
0.014499
0.038222
0.036008
0.024191
0.020941
-0.003140
-0.040798
-0.077073
-0.129339
-0.176509
-0.212931
-0.233894
-0.230551
-0.226807
-0.236608
-0.221839
-0.189656
-0.134167
-0.075004
-0.038772
-0.006327
0.059865
0.071926
0.056342
0.024387
-0.024519
-0.034942
-0.036770
-0.066237
-0.092176
-0.170482
-0.210516
-0.232094
-0.242489
-0.251488
-0.228182
-0.174933
-0.121557
-0.103720
-0.024957
-0.004740
0.005588
0.028000
0.040378
0.040725
0.026838
-0.009455
-0.042026
-0.089750
-0.155489
-0.202495
-0.212874
-0.215785
-0.232774
-0.251809
-0.238522
-0.196865
-0.163458
-0.106442
-0.054919
-0.010377
0.014085
0.022835
0.047477
0.051018
0.017413
-0.028302
-0.072223
-0.113065
-0.152818
-0.182685
-0.232352
-0.247662
-0.248854
-0.263282
-0.233309
-0.194012
-0.163072
-0.101312
-0.066398
-0.008794
0.028221
0.022093
0.017286
0.034854
0.065568
0.022336
-0.084057
-0.124873
-0.140870
-0.184760
-0.228091
-0.269007
-0.276858
-0.276627
-0.258535
-0.220088
-0.171206
-0.095976
-0.044207
0.016245
0.037935
0.027634
0.017101
0.044352
0.047164
-0.007539
-0.069619
-0.109329
-0.161055
-0.182741
-0.222606
-0.258718
-0.274209
-0.271374
-0.242272
-0.201960
-0.153197
-0.093011
-0.048929
-0.010494
0.022012
0.051499
0.059244
0.054163
0.029380
-0.002825
-0.096888
-0.115182
-0.106325
-0.128731
-0.186829
-0.225425
-0.241072
-0.255621
-0.232660
-0.192475
-0.149022
-0.100377
-0.049755
0.014157
0.045048
0.042652
0.064700
0.074224
0.049163
0.006684
-0.031953
-0.087459
-0.137210
-0.169171
-0.219021
-0.245116
-0.248077
-0.235822
-0.216298
-0.184969
-0.148744
-0.062496
0.009407
0.027092
0.009350
0.089599
0.106053
0.120738
0.106546
0.017697
-0.002062
-0.029484
-0.108379
-0.190699
-0.239258
-0.258658
-0.268267
-0.256032
-0.218511
-0.160367
-0.115287
-0.092979
-0.041401
0.009509
0.027724
0.020086
0.018295
0.021594
-0.003333
-0.045294
-0.078469
-0.128803
-0.178393
-0.238067
-0.250218
-0.266161
-0.276548
-0.279102
-0.271680
-0.240328
-0.196505
-0.133672
-0.100324
-0.053217
-0.031110
-0.013351
-0.017863
-0.013646
-0.030139
-0.068692
-0.123058
-0.177540
-0.216258
-0.239516
-0.282012
-0.326076
-0.347136
-0.339584
-0.319847
-0.280467
-0.226768
-0.152085
-0.088720
-0.031321
-0.006767
-0.023986
-0.022610
-0.046130
-0.085195
-0.086736
-0.102917
-0.165665
-0.236485
-0.290991
-0.315386
-0.326625
-0.356174
-0.316950
-0.304537
-0.269021
-0.235894
-0.179955
-0.131598
-0.072304
-0.026097
-0.003662
0.013449
0.040106
0.017301
-0.054120
-0.163689
-0.207033
-0.207391
-0.258238
-0.285577
-0.321931
-0.325785
-0.324052
-0.317735
-0.267205
-0.195600
-0.140316
-0.113783
-0.079633
-0.044199
-0.018744
-0.013561
-0.016106
-0.050953
-0.101529
-0.145845
-0.205997
-0.243049
-0.255421
-0.303309
-0.349938
-0.345530
-0.272521
-0.236256
-0.198116
-0.147337
-0.082520
-0.027725
0.032328
0.093842
0.103120
0.110809
0.119210
0.116592
0.092444
0.075960
0.038581
0.004363
0.014961
-0.011408
0.044373
0.083939
0.129798
0.182459
0.223062
0.293729
0.381037
0.455605
0.523376
0.587558
0.642075
0.688078
0.712886
0.715387
0.719925
0.713810
0.656607
0.600415
0.537696
0.484323
0.432441
0.390596
0.393384
0.365577
0.351189
0.332541
0.346635
0.320770
0.289898
0.263384
0.242603
0.189863
0.153351
0.119626
0.060907
-0.007498
-0.033303
-0.090628
-0.143717
-0.177371
-0.192176
-0.215655
-0.228279
-0.200087
-0.150950
-0.091971
-0.027078
-0.010763
0.020801
0.046977
0.091870
0.084575
0.053438
0.025856
-0.012838
-0.065082
-0.125955
-0.183921
-0.232088
-0.263541
-0.277198
-0.273821
-0.265781
-0.245370
-0.223251
-0.182859
-0.145871
-0.101011
-0.057714
-0.007938
0.002320
0.004390
0.002438
-0.025204
-0.054470
-0.090082
-0.114462
-0.147122
-0.239027
-0.309060
-0.317200
-0.271631
-0.226023
-0.245113
-0.208659
-0.180336
-0.147565
-0.113588
-0.070242
-0.005580
0.010232
0.021383
0.062456
0.052744
-0.022275
-0.097241
-0.163699
-0.188871
-0.202563
-0.224043
-0.266694
-0.279693
-0.269590
-0.262788
-0.232664
-0.175943
-0.130575
-0.067409
-0.023588
0.006946
0.025950
0.044872
0.040171
0.017345
-0.019809
-0.069589
-0.132434
-0.175381
-0.224189
-0.263183
-0.248297
-0.210743
-0.194845
-0.238931
-0.240650
-0.179139
-0.106607
-0.062488
-0.004970
0.044888
0.079794
0.073273
0.053501
0.018581
-0.003728
-0.044529
-0.096730
-0.157072
-0.189381
-0.218461
-0.255770
-0.270074
-0.241913
-0.212970
-0.193548
-0.173629
-0.096853
-0.002749
0.028938
0.038110
0.056321
0.069158
0.065231
0.042723
0.017835
0.008268
-0.003081
-0.071632
-0.117366
-0.162179
-0.190885
-0.210624
-0.184473
-0.170178
-0.121843
-0.101248
-0.053568
-0.010374
0.025853
0.082902
0.117041
0.105800
0.089630
0.078943
0.047546
-0.014577
-0.061283
-0.108095
-0.150825
-0.184374
-0.191389
-0.190075
-0.196022
-0.161360
-0.130934
-0.064644
-0.024558
0.010564
0.074515
0.115163
0.107360
0.116927
0.098747
0.110194
0.091660
0.022847
-0.063710
-0.129531
-0.162215
-0.186575
-0.193179
-0.203793
-0.200927
-0.189551
-0.149444
-0.107997
-0.046536
0.004578
0.029909
0.067964
0.083791
0.090730
0.076818
0.042784
0.012656
-0.030140
-0.080380
-0.120656
-0.200680
-0.224879
-0.154163
-0.127368
-0.172387
-0.200328
-0.161296
-0.128263
-0.090957
-0.031952
0.022576
0.024601
0.076825
0.102388
0.071070
0.042203
0.005458
-0.055881
-0.109431
-0.149839
-0.193147
-0.222232
-0.248433
-0.257100
-0.255341
-0.241950
-0.207032
-0.154506
-0.096767
-0.072982
-0.002343
0.040938
0.046787
0.045377
0.037056
-0.001108
-0.053314
-0.073817
-0.087821
-0.156141
-0.218527
-0.234576
-0.252608
-0.270725
-0.283989
-0.258800
-0.231140
-0.160166
-0.119834
-0.084424
-0.042764
-0.018518
0.003012
0.029048
0.037645
0.008133
-0.030270
-0.062980
-0.122987
-0.185375
-0.244140
-0.246769
-0.250409
-0.275656
-0.270795
-0.239707
-0.203922
-0.167489
-0.117855
-0.096895
-0.051925
-0.006576
0.051546
0.055834
0.029918
-0.016642
-0.055045
-0.081644
-0.103083
-0.162987
-0.244513
-0.282924
-0.287434
-0.287813
-0.300516
-0.274841
-0.207065
-0.163619
-0.104527
-0.054892
-0.030027
-0.009334
-0.000680
0.017634
0.011559
-0.015661
-0.022667
-0.023993
-0.070635
-0.163084
-0.227234
-0.252994
-0.273262
-0.270697
-0.264319
-0.247217
-0.202369
-0.156144
-0.111790
-0.073514
-0.050740
-0.000417
0.023927
0.029476
0.010722
-0.001878
0.030434
-0.039508
-0.121704
-0.209964
-0.198796
-0.225130
-0.266753
-0.249805
-0.222176
-0.217990
-0.200642
-0.149554
-0.104216
-0.062880
-0.022150
0.016953
0.040061
0.046740
0.037094
0.024523
-0.003271
-0.055853
-0.119132
-0.176377
-0.214260
-0.255625
-0.281036
-0.275230
-0.254822
-0.234762
-0.205733
-0.164060
-0.114538
-0.061003
-0.019814
0.002135
0.015505
0.051573
0.043016
0.006643
-0.018127
-0.052589
-0.094545
-0.160573
-0.214196
-0.267914
-0.274779
-0.292171
-0.305640
-0.289303
-0.254875
-0.140782
-0.050424
-0.020477
0.005770
0.028910
-0.000961
-0.012666
0.014169
0.043903
0.002093
-0.068954
-0.117677
-0.170320
-0.223833
-0.262862
-0.268873
-0.276716
-0.276587
-0.274856
-0.246803
-0.188533
-0.146221
-0.055918
0.003689
0.036749
0.023737
0.075239
0.068008
0.035978
-0.028041
-0.103643
-0.139413
-0.195307
-0.244746
-0.254365
-0.292180
-0.284516
-0.262450
-0.241108
-0.222101
-0.191801
-0.140793
-0.094833
-0.037802
-0.012361
0.015105
0.021060
0.005028
-0.009926
-0.043890
-0.087437
-0.126618
-0.172861
-0.221636
-0.250243
-0.270189
-0.275466
-0.276141
-0.264045
-0.216168
-0.206606
-0.123091
-0.061701
-0.057933
0.022090
0.051157
0.052771
0.010259
-0.012319
-0.050636
-0.080249
-0.104748
-0.164256
-0.202386
-0.245878
-0.277809
-0.279653
-0.243592
-0.225874
-0.200536
-0.152091
-0.085362
-0.040270
-0.002443
0.034497
0.044756
0.044085
0.033705
0.017562
-0.009772
-0.045348
-0.086370
-0.158415
-0.218038
-0.273257
-0.288805
-0.281016
-0.247125
-0.223943
-0.154528
-0.140108
-0.081230
0.005559
0.045731
0.058320
0.060836
0.083447
0.085950
0.072945
0.017853
-0.034433
-0.076950
-0.140714
-0.181123
-0.214934
-0.211937
-0.236744
-0.227744
-0.216221
-0.189276
-0.153791
-0.097011
-0.015398
0.027140
0.040545
0.051072
0.051117
0.035913
0.007731
-0.021630
-0.065027
-0.104521
-0.163576
-0.219760
-0.252395
-0.270333
-0.291992
-0.276491
-0.249301
-0.218829
-0.176692
-0.142157
-0.082509
-0.041427
-0.014455
0.007842
0.012554
0.003604
-0.023138
-0.077447
-0.130821
-0.162956
-0.207372
-0.235664
-0.281632
-0.299165
-0.299826
-0.255647
-0.264426
-0.253704
-0.190684
-0.157641
-0.106166
-0.060186
-0.022728
-0.034090
-0.041827
-0.042508
-0.052619
-0.066457
-0.094370
-0.133353
-0.213348
-0.289037
-0.319180
-0.309212
-0.323732
-0.288523
-0.233998
-0.214269
-0.192725
-0.156524
-0.112445
-0.056729
-0.041423
-0.017090
0.003687
-0.009859
-0.048589
-0.072122
-0.126823
-0.182352
-0.223026
-0.236307
-0.275442
-0.295965
-0.319285
-0.309840
-0.286363
-0.253906
-0.222615
-0.177053
-0.130640
-0.082276
-0.038505
-0.017573
0.005162
-0.011600
-0.048293
-0.078185
-0.129340
-0.166078
-0.210139
-0.265283
-0.298038
-0.329979
-0.278194
-0.269314
-0.285965
-0.297137
-0.234662
-0.198247
-0.098811
-0.047847
-0.004022
0.030661
0.046159
0.048524
0.025320
0.007697
-0.012743
-0.033138
-0.071437
-0.118086
-0.148292
-0.152679
-0.135352
-0.103976
-0.033959
0.027003
0.078825
0.164083
0.248623
0.321465
0.398729
0.433987
0.459116
0.494006
0.503522
0.497571
0.499135
0.467311
0.453632
0.456719
0.437149
0.459305
0.493238
0.506468
0.520672
0.566976
0.603032
0.622833
0.666559
0.678326
0.741224
0.670821
0.579355
0.491596
0.408957
0.314707
0.230372
0.142401
0.071488
-0.007462
-0.061719
-0.096958
-0.126017
-0.141670
-0.136643
-0.098879
-0.073943
-0.022612
0.017723
0.059816
0.089053
0.091750
0.103339
0.089411
0.073533
0.030294
-0.027516
-0.065348
-0.128041
-0.188435
-0.203206
-0.237718
-0.250260
-0.243252
-0.216123
-0.186199
-0.144781
-0.122595
-0.072561
-0.020865
0.008201
0.031209
0.032995
0.032310
0.011705
-0.030074
-0.082335
-0.138379
-0.182155
-0.227720
-0.230080
-0.255645
-0.272613
-0.277130
-0.247054
-0.206714
-0.157373
-0.108282
-0.052365
-0.025672
0.002737
0.021345
0.015065
0.006166
-0.008765
-0.030592
-0.065861
-0.099134
-0.150897
-0.203582
-0.258394
-0.303109
-0.289206
-0.280918
-0.264374
-0.193945
-0.151166
-0.113678
-0.058778
-0.001514
0.061143
0.070274
0.051733
0.031881
0.042610
-0.004461
-0.056096
-0.119474
-0.157309
-0.147398
-0.169331
-0.214486
-0.255380
-0.262866
-0.252665
-0.211112
-0.168114
-0.128230
-0.035064
0.015503
0.045107
0.055335
0.066472
0.061131
0.035169
0.005663
-0.050440
-0.094213
-0.133457
-0.173183
-0.211912
-0.232847
-0.239296
-0.218211
-0.198695
-0.170760
-0.125748
-0.078216
-0.016736
0.027602
0.063271
0.084583
0.093570
0.074542
0.039063
-0.003261
-0.001848
-0.046534
-0.087729
-0.172528
-0.182471
-0.215974
-0.221231
-0.203806
-0.166357
-0.133287
-0.089439
-0.039544
0.011196
0.063126
0.094694
0.132108
0.154742
0.141390
0.108491
0.070065
0.005273
-0.033880
-0.089148
-0.116459
-0.166565
-0.171764
-0.195184
-0.172261
-0.131617
-0.091469
-0.023017
0.006792
0.035975
0.066288
0.108040
0.133583
0.132859
0.125672
0.111456
0.085629
0.030432
-0.005698
-0.061395
-0.104407
-0.152052
-0.173265
-0.175565
-0.147266
-0.133547
-0.092681
-0.056229
-0.018799
0.021200
0.066567
0.103223
0.118728
0.112840
0.112421
0.106894
0.096382
0.046299
-0.017793
-0.082446
-0.120624
-0.160857
-0.177148
-0.186250
-0.187194
-0.166543
-0.137673
-0.091485
-0.045192
0.006046
0.047774
0.063552
0.086394
0.096785
0.103865
0.088298
0.045513
-0.003532
-0.057262
-0.119028
-0.180975
-0.193667
-0.201814
-0.217296
-0.220475
-0.214598
-0.157680
-0.098421
-0.083595
-0.007659
0.005474
0.071197
0.074208
0.081628
0.072960
0.029740
0.021493
-0.041009
-0.117275
-0.156317
-0.219450
-0.220859
-0.185696
-0.196212
-0.231232
-0.235763
-0.208270
-0.153905
-0.101873
-0.048401
-0.016765
0.021913
0.060098
0.060848
0.039543
0.020582
-0.012148
-0.083111
-0.120504
-0.144545
-0.195449
-0.236747
-0.253921
-0.267475
-0.253144
-0.228005
-0.205051
-0.167513
-0.135233
-0.080482
-0.013193
0.007143
0.022723
0.016550
0.013382
-0.014960
-0.049418
-0.068912
-0.080575
-0.081210
-0.139474
-0.233154
-0.280756
-0.291138
-0.270000
-0.230820
-0.182896
-0.147982
-0.116441
-0.068028
-0.035629
-0.000467
0.028022
0.029473
0.030862
0.006876
-0.023835
-0.060921
-0.100180
-0.159118
-0.218901
-0.262112
-0.261056
-0.234647
-0.240863
-0.241718
-0.192317
-0.149577
-0.107496
-0.074437
-0.030453
0.015775
0.030083
0.043678
0.033716
0.033119
0.005684
-0.067873
-0.114405
-0.153154
-0.175443
-0.199634
-0.238532
-0.241834
-0.249204
-0.227795
-0.186286
-0.127474
-0.093338
-0.055550
0.009108
0.034850
0.055895
0.050320
0.042249
0.012610
-0.021572
-0.062141
-0.109396
-0.138683
-0.183879
-0.223788
-0.239590
-0.247056
-0.245536
-0.213659
-0.206219
-0.161571
-0.110069
-0.064716
-0.009985
0.010192
0.019984
0.031062
0.065684
0.079804
0.015490
-0.043056
-0.101615
-0.143054
-0.200260
-0.227060
-0.240490
-0.268064
-0.271955
-0.221271
-0.176521
-0.129471
-0.092841
-0.064058
-0.031437
0.013284
0.060459
0.062575
0.038250
-0.010641
-0.036172
-0.075725
-0.117022
-0.149191
-0.228853
-0.248807
-0.256745
-0.232234
-0.249881
-0.254350
-0.145386
-0.073619
-0.070984
-0.040649
-0.026680
0.006672
0.029183
0.044166
0.037419
0.019743
0.001967
-0.061253
-0.099685
-0.144836
-0.200403
-0.245315
-0.265306
-0.276018
-0.264794
-0.242047
-0.209429
-0.147950
-0.099992
-0.065702
-0.026224
0.015306
0.034506
0.034433
0.005519
0.006201
-0.038066
-0.076728
-0.088409
-0.157021
-0.228928
-0.248116
-0.271073
-0.287221
-0.292858
-0.255234
-0.238463
-0.189754
-0.135730
-0.078154
-0.027513
0.008187
0.036108
0.041014
0.028351
0.020420
-0.020075
-0.075199
-0.123477
-0.170255
-0.220765
-0.251702
-0.274604
-0.274674
-0.260147
-0.240949
-0.208532
-0.162960
-0.114845
-0.074662
-0.025399
0.010506
0.038021
0.038503
0.037979
0.007148
-0.020422
-0.077828
-0.120431
-0.164481
-0.199466
-0.211067
-0.236699
-0.250005
-0.227616
-0.189220
-0.178479
-0.126448
-0.079792
-0.047261
-0.002485
0.039785
0.068858
0.059429
0.059895
0.044743
0.027179
-0.012823
-0.073989
-0.110491
-0.181735
-0.242331
-0.265829
-0.270410
-0.242832
-0.209072
-0.188487
-0.126202
-0.084080
-0.038336
0.009277
0.039315
0.054366
0.060001
0.057451
0.052232
0.001838
-0.040219
-0.066162
-0.101924
-0.129445
-0.177299
-0.214163
-0.208815
-0.186529
-0.169855
-0.159237
-0.130717
-0.062501
-0.025784
0.005322
0.048390
0.041459
0.047847
0.044874
0.030112
0.005358
-0.035546
-0.084055
-0.149553
-0.191883
-0.234947
-0.249840
-0.257528
-0.242818
-0.238334
-0.211599
-0.171269
-0.132535
-0.105868
0.000742
0.044400
0.056245
0.056795
0.043931
0.022000
-0.032740
-0.106930
-0.157613
-0.188969
-0.208335
-0.237750
-0.279348
-0.303513
-0.302089
-0.280735
-0.238699
-0.184493
-0.136046
-0.090263
-0.064654
-0.026109
0.038037
0.019168
0.023529
-0.007406
-0.039945
-0.089539
-0.133962
-0.175736
-0.248263
-0.283458
-0.289793
-0.285212
-0.297949
-0.293940
-0.236761
-0.172263
-0.100725
-0.055864
-0.067839
-0.036592
-0.000620
0.013345
0.007759
-0.010041
-0.048521
-0.098985
-0.142295
-0.171320
-0.227740
-0.260255
-0.287741
-0.298664
-0.285761
-0.281613
-0.242625
-0.189974
-0.150290
-0.093574
-0.048021
-0.017054
-0.009702
-0.018841
-0.037981
-0.013754
-0.059360
-0.104216
-0.140844
-0.170846
-0.226491
-0.266568
-0.290139
-0.279448
-0.263363
-0.262942
-0.243545
-0.194659
-0.146828
-0.123430
-0.048120
0.001394
0.006912
0.015926
0.013715
-0.000707
-0.029929
-0.066398
-0.081357
-0.101721
-0.141208
-0.172315
-0.161500
-0.152103
-0.140937
-0.115317
-0.071124
-0.004196
0.042234
0.098445
0.201120
0.320967
0.368141
0.392858
0.390442
0.422985
0.427937
0.417324
0.395036
0.368076
0.354727
0.372404
0.391469
0.436250
0.471215
0.521497
0.591877
0.637468
0.700438
0.721015
0.774065
0.775647
0.800280
0.810538
0.761357
0.692655
0.576389
0.456689
0.375033
0.276040
0.175195
0.085701
0.007213
-0.064812
-0.080956
-0.068448
-0.039942
-0.003010
0.040137
0.060040
0.086626
0.126072
0.132756
0.135261
0.159117
0.109348
0.050775
0.004568
-0.043507
-0.096415
-0.151359
-0.188612
-0.217340
-0.228908
-0.222637
-0.192772
-0.154058
-0.100515
-0.052194
0.003952
0.040813
0.080755
0.092622
0.082890
0.061998
0.031032
-0.012006
-0.054575
-0.100745
-0.149667
-0.196963
-0.229410
-0.247187
-0.245508
-0.250689
-0.226672
-0.212828
-0.154245
-0.102316
-0.051743
-0.010013
0.034205
0.072748
0.088767
0.050869
0.028603
-0.016244
-0.049006
-0.082148
-0.127562
-0.173494
-0.221489
-0.240409
-0.251834
-0.247970
-0.225370
-0.223277
-0.126840
-0.096812
-0.025346
0.035521
0.049017
0.034805
0.014611
0.030777
0.007542
-0.021788
-0.046791
-0.073102
-0.119893
-0.161995
-0.207521
-0.223931
-0.255009
-0.252618
-0.214051
-0.113064
-0.062333
-0.039215
-0.039012
0.008173
0.049549
0.074839
0.083677
0.053067
0.021636
0.023359
0.009550
-0.028767
-0.108721
-0.163368
-0.200917
-0.212774
-0.223596
-0.207246
-0.167456
-0.142877
-0.106830
-0.052744
-0.004856
0.048684
0.088194
0.121783
0.130956
0.116449
0.092383
0.086987
0.042469
-0.027699
-0.085529
-0.135393
-0.158801
-0.180692
-0.182236
-0.176405
-0.160377
-0.126644
-0.077442
-0.033295
0.019530
0.076208
0.106352
0.142501
0.152604
0.140318
0.121663
0.091889
0.055667
-0.002299
-0.055163
-0.093119
-0.112028
-0.099854
-0.099252
-0.135697
-0.128182
-0.088476
-0.039728
0.016290
0.067463
0.105321
0.136856
0.168720
0.170349
0.158625
0.133121
0.092689
0.051715
-0.005793
-0.042981
-0.062936
-0.081714
-0.086054
-0.103255
-0.105386
-0.105104
-0.065148
-0.013931
0.013359
0.067129
0.114224
0.144168
0.162490
0.169459
0.149553
0.136439
0.118534
0.062891
0.004822
-0.045879
-0.103338
-0.128347
-0.139862
-0.117068
-0.107325
-0.101735
-0.085124
-0.049340
-0.018073
0.016110
0.104877
0.131803
0.134584
0.124519
0.121218
0.158977
0.113606
0.059093
-0.010023
-0.059635
-0.124817
-0.119932
-0.164737
-0.175300
-0.198560
-0.168542
-0.093308
-0.061860
-0.022136
0.034261
0.079326
0.091565
0.079751
0.075380
0.060791
0.064960
0.074331
0.016788
-0.054195
-0.121839
-0.150067
-0.142130
-0.171245
-0.192248
-0.191494
-0.182604
-0.157851
-0.096596
-0.046257
-0.006305
0.025190
0.055562
0.085554
0.078213
0.067278
0.064936
0.022604
-0.026459
-0.080895
-0.125482
-0.174539
-0.203424
-0.212726
-0.223305
-0.211807
-0.182335
-0.167436
-0.145377
-0.085950
-0.036659
0.034734
0.029891
0.035448
0.037159
0.059989
0.041162
0.017672
-0.022382
-0.082535
-0.123987
-0.171422
-0.214500
-0.243601
-0.242909
-0.252295
-0.220749
-0.155178
-0.118305
-0.086800
-0.036680
-0.005718
0.026448
0.052704
0.067973
0.091368
0.070827
0.019960
-0.033564
-0.069309
-0.125047
-0.176994
-0.220283
-0.240969
-0.245319
-0.244322
-0.217880
-0.155839
-0.107499
-0.057106
-0.024352
0.003568
0.035259
0.090488
0.091969
0.058797
0.026470
0.009150
0.015558
-0.047920
-0.122930
-0.147330
-0.196312
-0.197409
-0.214920
-0.196285
-0.171184
-0.157781
-0.120573
-0.063920
-0.008740
0.013318
0.037372
0.074238
0.099923
0.094829
0.051954
0.005993
-0.022619
-0.072927
-0.110189
-0.122998
-0.158826
-0.209493
-0.232943
-0.212967
-0.192494
-0.173943
-0.122668
-0.066589
-0.010946
0.037543
0.070910
0.101560
0.090974
0.093713
0.064657
0.018551
-0.036678
-0.077772
-0.114021
-0.148375
-0.192703
-0.196760
-0.223230
-0.220338
-0.197275
-0.164450
-0.127712
-0.076326
-0.023467
0.044282
0.090161
0.089342
0.085240
0.078459
0.056592
0.033510
-0.005282
-0.051470
-0.097585
-0.155937
-0.204674
-0.229512
-0.238179
-0.220069
-0.221455
-0.169412
-0.125499
-0.081570
-0.021891
-0.000204
0.006167
0.094448
0.113253
0.121538
0.122296
0.087982
0.011681
-0.081187
-0.145622
-0.187731
-0.209591
-0.223116
-0.228228
-0.203581
-0.191220
-0.158271
-0.120194
-0.060448
-0.028360
0.018403
0.044916
0.069334
0.074866
0.051650
0.035352
0.000462
-0.036157
-0.074719
-0.118070
-0.161735
-0.192082
-0.219585
-0.239183
-0.235356
-0.211941
-0.190151
-0.139334
-0.089371
0.011907
0.042306
0.059825
0.064635
0.088247
0.071564
0.052705
0.013699
-0.062383
-0.063903
-0.105848
-0.156570
-0.197404
-0.232996
-0.214220
-0.205497
-0.186494
-0.154144
-0.116232
-0.066158
-0.015871
0.024465
0.053497
0.082412
0.080408
0.097199
0.061031
0.030116
-0.025441
-0.039335
-0.071280
-0.143529
-0.206139
-0.235764
-0.213924
-0.214208
-0.164844
-0.081504
-0.040470
0.009073
0.034301
0.072201
0.112630
0.113407
0.119590
0.112746
0.078157
0.059908
0.000913
-0.048118
-0.097242
-0.126583
-0.170717
-0.198888
-0.211449
-0.189732
-0.161140
-0.126245
-0.086064
-0.029025
0.017496
0.064856
0.090707
0.119277
0.131387
0.122707
0.100717
0.067206
0.017902
-0.036210
-0.081774
-0.122512
-0.161381
-0.190792
-0.190510
-0.179725
-0.164505
-0.134210
-0.092153
-0.048176
0.006440
0.057120
0.101755
0.109655
0.102909
0.087706
0.046003
0.024466
-0.021742
-0.072038
-0.121178
-0.166341
-0.186294
-0.206769
-0.209680
-0.208439
-0.184368
-0.147094
-0.123842
-0.072424
-0.018642
-0.002667
0.039854
0.071006
0.088630
0.068316
0.051707
0.009998
-0.017582
-0.103738
-0.150344
-0.207270
-0.229890
-0.265520
-0.225241
-0.224551
-0.237565
-0.235609
-0.192676
-0.031301
0.008394
0.027200
0.058405
0.066864
0.053726
0.067157
0.032407
-0.007475
-0.039152
-0.092637
-0.133094
-0.186323
-0.232052
-0.249623
-0.261241
-0.258550
-0.219397
-0.173965
-0.140003
-0.113270
-0.063231
-0.015285
-0.002644
0.029514
0.083403
0.103584
0.071132
0.000518
-0.045371
-0.092351
-0.150088
-0.201076
-0.231622
-0.252291
-0.261934
-0.246525
-0.230635
-0.187658
-0.150019
-0.106237
-0.056042
-0.007383
0.037638
0.066506
0.066441
0.050417
0.023664
0.012361
-0.022368
-0.089724
-0.163996
-0.212372
-0.240393
-0.258174
-0.267785
-0.250798
-0.236073
-0.209648
-0.161795
-0.119570
-0.052480
0.011418
0.069170
0.130691
0.137359
0.123200
0.113498
0.111498
0.087794
0.062204
0.010570
-0.009806
-0.040112
-0.041442
-0.065740
-0.067303
0.088292
0.206565
0.228989
0.307885
0.397649
0.475420
0.533127
0.594584
0.614339
0.649676
0.676582
0.689480
0.684525
0.686073
0.678167
0.650735
0.635911
0.608737
0.585263
0.603881
0.608305
0.624348
0.629358
0.659713
0.672138
0.641404
0.607096
0.559881
0.550599
0.476404
0.389610
0.300866
0.204761
0.127217
0.047511
0.006533
-0.030454
-0.026671
-0.057645
-0.083569
-0.056110
-0.020712
0.014797
0.044239
0.070620
0.114030
0.153977
0.178116
0.180715
0.161259
0.126712
0.107538
0.061702
0.003384
-0.049016
-0.108652
-0.148698
-0.184985
-0.183549
-0.179174
-0.161026
-0.131672
-0.092940
-0.036770
0.003673
0.035385
0.063852
0.094354
0.102541
0.093220
0.081796
0.045278
-0.004056
-0.055978
-0.109252
-0.148967
-0.174197
-0.189302
-0.189379
-0.173022
-0.156489
-0.127560
-0.117549
-0.064343
0.008704
0.062200
0.076660
0.085914
0.087176
0.098502
0.073249
0.041924
0.006297
-0.026587
-0.079993
-0.123491
-0.165562
-0.187533
-0.192829
-0.193501
-0.177857
-0.147905
-0.099720
-0.048818
0.001469
0.051315
0.086906
0.104665
0.103231
0.104646
0.101963
0.091196
0.060622
-0.026144
-0.084494
-0.080270
-0.107016
-0.163337
-0.176997
-0.192791
-0.151324
-0.124107
-0.086235
-0.021951
0.044775
0.095488
0.120893
0.105989
0.133931
0.120172
0.086566
0.033929
-0.024600
0.007923
0.039016
-0.039878
-0.112924
-0.120431
-0.130969
-0.128604
-0.119319
-0.089545
-0.034530
0.023967
0.089061
0.113365
0.140295
0.164745
0.173696
0.179741
0.153693
0.112714
0.064679
0.021897
-0.018657
-0.046983
-0.095000
-0.121055
-0.109053
-0.091322
-0.081289
-0.038813
-0.000197
0.052123
0.099169
0.151306
0.176612
0.201375
0.207764
0.203246
0.185367
0.157418
0.114855
0.064077
0.027884
-0.016008
-0.070318
-0.094596
-0.092580
-0.063591
-0.049885
-0.026475
0.014289
0.056644
0.110728
0.143895
0.209484
0.235995
0.237016
0.217689
0.199395
0.158972
0.122889
0.076579
0.047271
0.014003
-0.043830
-0.076156
-0.098287
-0.086917
-0.037285
0.005911
0.049502
0.093362
0.116320
0.147299
0.187623
0.208170
0.212687
0.199582
0.178426
0.147758
0.120537
0.079683
0.010256
-0.042303
-0.061566
-0.080919
-0.103327
-0.061169
-0.027064
-0.008040
0.004791
0.025780
0.093483
0.159845
0.185306
0.189294
0.190055
0.188209
0.167047
0.125059
0.077013
0.023859
-0.025121
-0.085552
-0.117225
-0.122170
-0.135112
-0.132019
-0.106691
-0.100921
-0.065166
0.033584
0.082230
0.106064
0.133294
0.161991
0.179842
0.153942
0.119396
0.077276
0.044658
-0.005835
-0.047289
-0.085892
-0.134545
-0.159798
-0.160499
-0.149963
-0.130027
-0.120905
-0.087768
-0.045470
-0.008413
0.056073
0.117939
0.184489
0.159628
0.122427
0.092822
0.065512
0.043349
0.009354
-0.049758
-0.113903
-0.139292
-0.172662
-0.194071
-0.180501
-0.163069
-0.124095
-0.099685
-0.062928
0.001688
0.096853
0.133186
0.135120
0.127139
0.115496
0.095221
0.058258
0.019551
-0.030289
-0.073324
-0.120096
-0.161095
-0.180161
-0.187670
-0.170955
-0.143269
-0.103223
-0.073398
-0.028369
0.005616
0.047302
0.081155
0.113206
0.132943
0.104344
0.087579
0.088633
0.064401
-0.006220
-0.075461
-0.103237
-0.147243
-0.167065
-0.161225
-0.150306
-0.153631
-0.119164
-0.074712
-0.005754
0.026141
0.058314
0.107774
0.128258
0.146996
0.140988
0.114653
0.061689
-0.013572
-0.061055
-0.088681
-0.081810
-0.112063
-0.146712
-0.156593
-0.124369
-0.109039
-0.087410
-0.069706
-0.005904
0.024293
0.054052
0.098335
0.125858
0.165038
0.151524
0.147463
0.086027
0.017075
-0.024018
-0.072333
-0.113031
-0.172106
-0.171714
-0.050335
-0.079340
-0.101266
-0.086955
-0.058142
-0.006607
0.036802
0.081132
0.117832
0.136437
0.134663
0.138085
0.117423
0.089994
0.065135
0.000500
-0.054054
-0.094527
-0.147702
-0.152652
-0.147444
-0.146076
-0.138687
-0.116172
-0.072025
-0.024548
0.022363
0.068269
0.114230
0.139682
0.138730
0.137620
0.109301
0.073116
0.039084
0.008009
-0.050002
-0.102960
-0.149203
-0.175122
-0.163434
-0.154975
-0.164471
-0.130182
-0.091593
-0.030976
0.030360
0.072449
0.118645
0.142850
0.142293
0.121786
0.098569
0.080900
0.044522
-0.027451
-0.077317
-0.120627
-0.153682
-0.183167
-0.155777
-0.144687
-0.143627
-0.120113
-0.071491
-0.008740
0.036807
0.082383
0.108254
0.119829
0.131541
0.126901
0.111382
0.082589
0.022454
-0.031886
-0.082483
-0.099836
-0.153157
-0.161044
-0.185179
-0.139077
-0.105570
-0.088280
-0.066334
-0.020904
0.033708
0.064362
0.111477
0.125558
0.124248
0.117184
0.073053
0.047606
0.050699
-0.012025
-0.069142
-0.098786
-0.149403
-0.173820
-0.176554
-0.173663
-0.162719
-0.128033
-0.077421
-0.030055
0.007428
0.045985
0.104725
0.121683
0.126521
0.118933
0.109670
0.086599
0.052260
-0.017076
-0.069492
-0.110102
-0.137850
-0.170554
-0.173474
-0.168806
-0.134520
-0.109003
-0.037471
0.033104
0.050219
0.069682
0.112762
0.131344
0.152802
0.168745
0.155145
0.118660
0.060162
0.005170
-0.041416
-0.056726
-0.091150
-0.122706
-0.135230
-0.129985
-0.113448
-0.085611
-0.043764
-0.004944
0.022262
0.090115
0.149299
0.164356
0.179516
0.173925
0.160321
0.115673
0.073115
0.026284
-0.031442
-0.039159
-0.085079
-0.121346
-0.142868
-0.133195
-0.122305
-0.055643
-0.021276
0.027564
0.078320
0.077776
0.099860
0.151351
0.225151
0.236921
0.205149
0.141371
0.087945
0.015475
-0.045074
-0.085356
-0.102840
-0.128586
-0.152483
-0.199240
-0.137732
-0.098327
-0.056157
-0.004784
0.053454
0.102184
0.129312
0.120763
0.127492
0.135741
0.107888
0.087322
0.047538
0.012186
-0.050193
-0.116134
-0.142240
-0.162623
-0.194941
-0.191841
-0.168706
-0.135413
-0.099488
-0.054223
0.001942
0.046876
0.086934
0.121511
0.117250
0.113571
0.081239
0.035416
0.003334
-0.041114
-0.087060
-0.130947
-0.171988
-0.197277
-0.197279
-0.189469
-0.164700
-0.126707
-0.081857
-0.041618
0.016692
0.066669
0.102870
0.102798
0.104038
0.113400
0.110665
0.055856
-0.005162
-0.045248
-0.069594
-0.112847
-0.172847
-0.191672
-0.202549
-0.227186
-0.195725
-0.144237
-0.097269
-0.039694
0.004031
0.046773
0.089552
0.107210
0.108521
0.102288
0.080025
0.044877
0.003715
-0.046228
-0.103269
-0.160181
-0.212084
-0.167291
-0.160462
-0.186073
-0.163582
-0.117747
-0.081162
-0.061860
-0.019019
0.011267
0.074569
0.140540
0.164400
0.113652
0.070033
0.042792
-0.013281
-0.065342
-0.039429
-0.093065
-0.136442
-0.161198
-0.162302
-0.138876
-0.129091
-0.084169
-0.025938
0.047685
0.116506
0.171322
0.215410
0.253647
0.276895
0.293924
0.281543
0.278866
0.259818
0.251035
0.235544
0.227110
0.237491
0.246729
0.267039
0.318429
0.385945
0.456325
0.526210
0.612939
0.710568
0.788508
0.851112
0.917471
0.931622
0.940147
0.946679
0.891265
0.861829
0.805365
0.724986
0.633135
0.533569
0.471068
0.393607
0.348759
0.323577
0.305139
0.292709
0.292799
0.288527
0.298877
0.301561
0.315517
0.321935
0.312611
0.275183
0.216497
0.174417
0.133456
0.080938
0.014653
-0.050720
-0.076402
-0.089394
-0.098848
-0.071468
-0.030713
-0.013826
0.052855
0.106114
0.130417
0.169602
0.173856
0.183002
0.159365
0.107196
0.108977
0.079778
0.016419
-0.015915
-0.053898
-0.101000
-0.096729
-0.108123
-0.119540
-0.118888
-0.100600
-0.035852
0.007267
0.065392
0.101547
0.146819
0.163597
0.154737
0.158505
0.139105
0.122060
0.066181
0.015398
-0.009623
-0.074218
-0.123360
-0.148760
-0.176434
-0.141015
-0.131820
-0.092463
-0.045259
0.025164
0.079268
0.112714
0.134966
0.166896
0.190370
0.174188
0.155355
0.096037
0.043298
0.008898
-0.033801
-0.084994
-0.109378
-0.128883
-0.110663
-0.103214
-0.090766
-0.057429
-0.016101
0.033979
0.078289
0.117858
0.163657
0.186203
0.173794
0.157748
0.167665
0.140014
0.089081
0.043404
-0.008386
-0.038322
-0.074676
-0.111472
-0.113730
-0.118066
-0.085200
-0.048455
-0.000230
0.048930
0.100100
0.139257
0.168995
0.204357
0.194951
0.191040
0.198223
0.170531
0.148273
0.075559
0.008136
-0.019804
-0.059715
-0.082342
-0.070921
-0.076393
-0.062656
-0.033763
0.029958
0.064768
0.116012
0.170573
0.202968
0.246246
0.259845
0.271718
0.245329
0.200635
0.169919
0.131938
0.061022
0.002160
-0.013617
-0.026265
-0.049907
-0.053031
-0.030162
-0.011801
0.035938
0.091171
0.147289
0.203876
0.264703
0.312719
0.313608
0.280072
0.255520
0.207335
0.186490
0.152793
0.102899
0.045527
0.018570
-0.020478
-0.030298
-0.001286
0.024000
0.055148
0.091907
0.134952
0.179286
0.228913
0.256357
0.278322
0.279371
0.280289
0.262891
0.226498
0.175105
0.144426
0.078051
0.022629
-0.000102
-0.004983
0.001394
-0.001624
0.024236
0.043871
0.072395
0.105446
0.136058
0.184313
0.250241
0.293821
0.292103
0.277592
0.245997
0.206804
0.165597
0.117534
0.083696
0.047246
-0.019241
-0.058271
-0.061812
-0.062412
-0.046973
-0.019556
0.057344
0.099983
0.141714
0.178090
0.209207
0.236289
0.263626
0.256978
0.215786
0.145612
0.109227
0.060298
0.018321
-0.009350
-0.045582
-0.061810
-0.062277
-0.061142
-0.053153
-0.038759
-0.010374
0.032950
0.093287
0.144490
0.201496
0.206061
0.205566
0.163821
0.160152
0.153432
0.094166
0.055602
0.008204
-0.055130
-0.080385
-0.078282
-0.099144
-0.104528
-0.078095
-0.051650
-0.015373
0.039306
0.091641
0.147990
0.150814
0.171347
0.204799
0.201487
0.161807
0.124886
0.089865
0.056007
-0.010884
-0.064424
-0.104688
-0.129396
-0.134306
-0.120013
-0.104454
-0.070733
-0.036366
-0.002456
0.077866
0.149405
0.159559
0.176565
0.183157
0.178851
0.149308
0.095796
0.103738
0.050001
-0.025031
-0.084478
-0.091040
-0.086980
-0.097134
-0.100021
-0.085068
-0.090512
-0.050272
0.029404
0.076779
0.117228
0.144933
0.168541
0.182491
0.200917
0.175951
0.154145
0.107983
0.043765
0.018062
-0.020122
-0.057946
-0.093091
-0.124575
-0.114988
-0.101142
-0.064213
-0.015426
0.033560
0.098766
0.131072
0.139825
0.167077
0.168757
0.163311
0.148431
0.168455
0.133556
0.063717
0.000696
-0.032589
-0.048759
-0.086802
-0.111784
-0.104321
-0.093475
-0.054209
0.021410
0.061132
0.084349
0.127247
0.184039
0.184466
0.189401
0.199931
0.184125
0.137993
0.130406
0.051057
-0.013764
-0.049119
-0.081492
-0.112511
-0.122788
-0.095958
-0.063042
-0.046833
-0.003302
0.029643
0.080674
0.119196
0.154440
0.218762
0.221703
0.199238
0.181250
0.143134
0.092146
0.052728
0.009690
-0.038030
-0.079200
-0.119814
-0.105511
-0.101523
-0.094106
-0.053855
-0.009289
0.043970
0.089451
0.129944
0.157020
0.177833
0.191010
0.174763
0.153222
0.127305
0.089708
0.060776
-0.005266
-0.037469
-0.097529
-0.077366
-0.100544
-0.085362
-0.080472
-0.053419
-0.009376
0.034379
0.092171
0.129461
0.145068
0.178554
0.185833
0.159284
0.149745
0.133344
0.089994
0.053285
0.005542
-0.057906
-0.107214
-0.108306
-0.093656
-0.095861
-0.079696
-0.039258
-0.016302
0.020294
0.067442
0.119145
0.171129
0.194824
0.198701
0.182689
0.165846
0.127146
0.075527
0.032452
-0.017911
-0.057907
-0.092826
-0.132500
-0.149788
-0.132042
-0.095273
-0.038014
0.002845
0.032527
0.083070
0.125545
0.141951
0.160136
0.175134
0.171197
0.153271
0.117197
0.080485
0.047384
-0.011712
-0.067706
-0.097285
-0.121932
-0.118359
-0.109914
-0.092613
-0.058602
-0.022547
0.017113
0.071117
0.111631
0.131710
0.149202
0.195250
0.189790
0.167826
0.137556
0.080432
0.038453
-0.009080
-0.047516
-0.092329
-0.103015
-0.112881
-0.109385
-0.085115
-0.061731
0.008283
0.054582
0.098988
0.142902
0.181528
0.230780
0.258149
0.231478
0.191962
0.151412
0.114372
0.072053
0.011135
-0.038745
-0.071492
-0.097997
-0.106495
-0.094460
-0.065212
-0.025596
0.013438
0.061063
0.094719
0.140979
0.188230
0.219226
0.227150
0.211121
0.178257
0.168404
0.152724
0.093350
0.028307
-0.012124
-0.041324
-0.047969
-0.067730
-0.062373
-0.033880
-0.009537
0.022412
0.061655
0.101941
0.187721
0.217974
0.252795
0.243756
0.253052
0.169806
0.130747
0.074867
0.066228
0.022123
-0.046486
-0.082611
-0.108574
-0.089438
-0.067097
-0.066195
-0.060624
-0.018536
0.049572
0.092687
0.132880
0.158303
0.178068
0.180837
0.170795
0.154673
0.120356
0.072892
0.040027
-0.021275
-0.072729
-0.103895
-0.131434
-0.146152
-0.132782
-0.115666
-0.091477
-0.044895
0.010150
0.057940
0.100996
0.131601
0.165589
0.172757
0.145884
0.131873
0.101646
0.059500
0.008664
-0.042110
-0.082441
-0.122706
-0.159618
-0.159473
-0.155716
-0.124688
-0.086235
-0.047920
0.003430
0.055205
0.095148
0.126721
0.154288
0.150941
0.151626
0.141428
0.105120
0.061715
0.011488
-0.036793
-0.075076
-0.121778
-0.152260
-0.163531
-0.159298
-0.144841
-0.098771
0.008348
0.048033
0.073380
0.080149
0.092643
0.134392
0.176803
0.161398
0.123078
0.093694
0.037540
-0.001136
-0.025000
-0.069864
-0.115041
-0.152812
-0.159868
-0.149191
-0.147785
-0.122842
-0.083854
-0.043119
0.080607
0.151183
0.127198
0.130741
0.130241
0.142733
0.143279
0.092978
0.042376
0.011977
-0.019799
-0.034552
-0.098818
-0.133605
-0.116897
-0.085821
-0.047527
-0.026497
0.040824
0.133695
0.197016
0.258131
0.298871
0.338281
0.356579
0.380191
0.394488
0.376403
0.361650
0.361609
0.354320
0.345840
0.334231
0.342667
0.369139
0.412372
0.453561
0.535197
0.621145
0.692567
0.781759
0.850652
0.920436
0.960129
0.965102
0.955077
0.919674
0.856700
0.807525
0.741434
0.659879
0.585461
0.476944
0.391445
0.328768
0.273548
0.242548
0.225571
0.205949
0.200878
0.271209
0.314281
0.341853
0.351788
0.330951
0.314341
0.288742
0.252558
0.194244
0.146853
0.074366
0.020158
-0.015752
-0.045213
-0.046245
-0.062747
-0.045713
0.001603
0.036762
0.080919
0.117210
0.135987
0.175511
0.194366
0.233599
0.248747
0.200282
0.144747
0.113934
0.067334
0.008805
-0.039564
-0.082001
-0.117850
-0.137715
-0.117521
-0.083645
-0.037448
0.013812
0.053613
0.092197
0.122513
0.158671
0.188876
0.196773
0.202065
0.172656
0.151949
0.080465
0.058547
-0.000527
-0.091124
-0.099618
-0.106658
-0.103677
-0.097393
-0.084914
-0.060580
-0.020329
0.031943
0.097057
0.155831
0.179588
0.192882
0.198685
0.206261
0.176334
0.153220
0.111538
0.061823
0.008102
-0.033822
-0.066398
-0.096249
-0.116302
-0.101203
-0.065696
-0.045213
-0.002281
0.040219
0.109976
0.173628
0.207763
0.193635
0.171731
0.196118
0.207326
0.171124
0.122400
0.092360
0.041177
-0.018974
-0.057154
-0.060993
-0.100730
-0.085755
-0.036842
0.001444
0.044209
0.086771
0.141191
0.184270
0.224703
0.237566
0.238741
0.230999
0.228826
0.175997
0.161547
0.108363
0.049386
0.007679
-0.018212
-0.050607
-0.056183
-0.060501
-0.043318
-0.018379
0.045354
0.103641
0.182584
0.249936
0.268720
0.269623
0.266889
0.267614
0.249069
0.233673
0.191806
0.137037
0.061544
0.022947
-0.003397
-0.007612
-0.023461
-0.012646
0.016707
0.057467
0.092125
0.127115
0.181878
0.231993
0.272477
0.293516
0.287495
0.295232
0.284147
0.261621
0.217765
0.173183
0.128757
0.082861
0.032666
-0.003292
-0.022036
-0.029487
0.012638
0.066520
0.130679
0.169815
0.193079
0.250670
0.270567
0.297590
0.288172
0.282934
0.261979
0.215478
0.196748
0.173654
0.120846
0.092540
0.048539
0.001101
-0.015128
0.012691
0.028970
0.071297
0.129411
0.153147
0.189302
0.215022
0.255898
0.272812
0.291476
0.303025
0.269253
0.213995
0.199568
0.141303
0.089823
0.057424
0.013314
-0.022908
-0.039423
-0.030803
-0.026603
0.033748
0.073242
0.098535
0.141265
0.190306
0.233663
0.251538
0.259295
0.255121
0.218078
0.178961
0.130777
0.083767
0.047848
0.011923
-0.033099
-0.057083
-0.061991
-0.044847
-0.029354
-0.011593
0.016644
0.090140
0.116384
0.143608
0.158315
0.190247
0.213574
0.227082
0.200912
0.159940
0.128958
0.092729
0.032888
-0.021611
-0.038888
-0.078085
-0.113962
-0.123310
-0.085742
-0.035620
-0.008006
0.024547
0.077615
0.122817
0.176458
0.213776
0.208908
0.197376
0.167235
0.137847
0.099719
0.046655
0.012030
-0.036527
-0.065523
-0.086907
-0.103384
-0.109173
-0.080684
-0.044735
-0.006544
0.022300
0.071921
0.115271
0.143342
0.184838
0.197968
0.184492
0.200456
0.147094
0.092200
0.046880
0.007782
-0.048031
-0.093438
-0.102694
-0.092719
-0.095671
-0.091873
-0.046030
0.016316
0.055472
0.078005
0.128282
0.168707
0.183575
0.182148
0.179505
0.187460
0.191913
0.137477
0.071108
0.032680
-0.010436
-0.065893
-0.108509
-0.106138
-0.100421
-0.069390
-0.028355
0.027594
0.067086
0.093763
0.137634
0.177436
0.214356
0.213559
0.204345
0.175837
0.135366
0.101177
0.047117
-0.012086
-0.024649
-0.020977
-0.053478
-0.098432
-0.107890
-0.093128
-0.051301
-0.001443
0.053682
0.092548
0.125715
0.152335
0.179338
0.208328
0.210007
0.178748
0.135682
0.087086
0.067130
0.010459
-0.037462
-0.045611
-0.056198
-0.070984
-0.090695
-0.076807
-0.044952
0.000416
0.052087
0.092128
0.127380
0.166175
0.224966
0.214903
0.192132
0.180633
0.147117
0.091342
0.049621
0.010411
-0.030125
-0.076972
-0.106655
-0.106648
-0.114442
-0.092619
-0.049559
-0.006351
0.046296
0.095324
0.152103
0.196184
0.207352
0.207085
0.195780
0.181934
0.130569
0.077310
0.039209
-0.002040
-0.048229
-0.071122
-0.098436
-0.116410
-0.106112
-0.088308
-0.065133
-0.023148
0.011252
0.076587
0.129709
0.153998
0.168062
0.175393
0.191782
0.182156
0.147539
0.088590
0.043648
-0.005019
-0.058194
-0.086059
-0.101229
-0.112081
-0.102628
-0.083845
-0.055726
-0.020885
0.034654
0.091536
0.155689
0.178042
0.171684
0.172446
0.179669
0.166103
0.093731
0.083648
0.022918
-0.029417
-0.041269
-0.094784
-0.102563
-0.083850
-0.105275
-0.077136
-0.056466
-0.005474
0.043698
0.076613
0.105835
0.132040
0.162058
0.181101
0.180209
0.156070
0.121575
0.074396
0.034315
-0.024206
-0.078847
-0.109892
-0.135200
-0.134467
-0.095305
-0.070843
-0.014487
0.025085
0.021119
0.068972
0.118002
0.146404
0.169426
0.175985
0.166450
0.146772
0.109811
0.083290
0.064865
0.012957
-0.043539
-0.083844
-0.096919
-0.101410
-0.106175
-0.094003
-0.045810
0.002863
0.041921
0.084011
0.126978
0.170139
0.202080
0.205863
0.193485
0.185745
0.155080
0.109978
0.064433
0.018129
-0.031578
-0.068920
-0.094012
-0.103876
-0.083970
-0.061830
-0.036855
0.007499
0.054623
0.095026
0.145402
0.169055
0.206187
0.228053
0.219865
0.201881
0.171239
0.136516
0.092928
0.036795
-0.000803
-0.026770
-0.046082
-0.056742
-0.057904
-0.042957
-0.003807
0.015553
0.059830
0.091479
0.147898
0.196146
0.211510
0.199102
0.188789
0.157278
0.126948
0.081159
0.041193
0.002836
-0.042087
-0.078422
-0.058818
-0.078043
-0.105620
-0.045413
-0.051716
-0.035964
-0.006362
0.047346
0.101001
0.149144
0.170665
0.188256
0.176929
0.145256
0.110095
0.078255
0.027218
-0.019414
-0.061569
-0.110194
-0.131374
-0.138351
-0.139066
-0.133438
-0.094715
-0.056156
0.003317
0.048190
0.078058
0.114227
0.136773
0.141621
0.150238
0.133277
0.097476
0.038721
-0.004048
-0.034046
-0.080558
-0.119040
-0.161257
-0.173095
-0.173958
-0.118110
-0.101538
-0.066300
0.000813
0.058187
0.117146
0.117978
0.145755
0.146992
0.147643
0.124827
0.091961
0.049549
0.003309
-0.050539
-0.104821
-0.135070
-0.162354
-0.175043
-0.157914
-0.111034
-0.080675
-0.053749
-0.026957
0.005190
0.082066
0.151478
0.171428
0.167583
0.167012
0.136111
0.073727
0.020687
-0.020956
-0.034416
-0.087746
-0.142832
-0.141793
-0.133061
-0.137873
-0.123039
-0.094320
-0.056915
-0.007935
0.032845
0.069945
0.112245
0.137840
0.157372
0.132553
0.105718
0.091766
0.071333
0.017381
-0.018293
-0.035131
-0.061631
-0.087383
-0.068855
-0.006584
0.040186
0.055191
0.078983
0.124081
0.210349
0.280366
0.328336
0.336558
0.398194
0.443140
0.447727
0.445077
0.427342
0.434149
0.428646
0.399537
0.361852
0.378023
0.430514
0.466307
0.510644
0.560908
0.620797
0.712730
0.795421
0.873584
0.894246
0.904479
0.903980
0.884293
0.845199
0.775872
0.695867
0.585244
0.458714
0.359900
0.293113
0.253373
0.182507
0.118401
0.074402
0.074083
0.109570
0.151822
0.181981
0.215210
0.250097
0.271973
0.263287
0.252501
0.203458
0.214469
0.178412
0.108372
0.047171
-0.012787
-0.034209
-0.071400
-0.084797
-0.073732
-0.045346
-0.007789
0.025263
0.050566
0.090126
0.131660
0.184877
0.196889
0.198187
0.195500
0.166513
0.123096
0.073019
0.022841
-0.011082
-0.045470
-0.067766
-0.096958
-0.131995
-0.137129
-0.120538
-0.090010
-0.048478
0.010235
0.065401
0.123845
0.148887
0.171008
0.190536
0.185798
0.166109
0.134355
0.083794
0.026380
-0.013573
-0.061325
-0.093446
-0.120022
-0.131355
-0.124170
-0.094084
-0.059602
-0.018610
0.032532
0.088724
0.144164
0.163596
0.168227
0.176503
0.177881
0.166472
0.130755
0.097636
0.037943
0.003718
-0.036318
-0.074386
-0.102280
-0.110892
-0.098752
-0.061140
-0.033935
-0.012709
0.052864
0.074450
0.111760
0.142064
0.196975
0.233377
0.209412
0.156541
0.170005
0.144049
0.065450
0.007313
-0.040396
-0.067665
-0.066176
-0.086857
-0.094961
-0.054821
-0.023322
0.014392
0.066528
0.117645
0.165238
0.201182
0.216961
0.233844
0.221149
0.196798
0.157742
0.105970
0.075126
0.060455
0.021095
-0.033005
-0.070686
-0.069493
-0.038640
-0.015826
0.019778
0.060618
0.109659
0.145015
0.198330
0.243979
0.266373
0.290343
0.274986
0.257497
0.217108
0.160415
0.106195
0.084741
0.037462
0.001651
-0.039445
-0.062583
-0.025182
0.016429
0.054408
0.067700
0.111368
0.161813
0.216048
0.255501
0.284884
0.302837
0.286276
0.280084
0.240077
0.203334
0.152820
0.108950
0.062975
0.019583
-0.011267
-0.017921
-0.004509
0.025943
0.057971
0.075896
0.115800
0.172253
0.209882
0.240742
0.269117
0.295826
0.295355
0.269085
0.232288
0.183918
0.128586
0.086378
0.046106
0.016343
-0.000617
-0.012920
-0.025708
-0.005093
0.031070
0.062408
0.095454
0.151488
0.207364
0.275096
0.301729
0.327904
0.321843
0.256025
0.179017
0.131486
0.087667
0.101899
0.073739
-0.012799
-0.063681
-0.072110
-0.049892
-0.036934
0.007563
0.040831
0.084252
0.127731
0.164331
0.200853
0.210275
0.215417
0.228104
0.249561
0.215516
0.131971
0.080013
0.029474
-0.023284
-0.052288
-0.073831
-0.113174
-0.087701
-0.070396
-0.035741
-0.012138
0.040356
0.099805
0.152766
0.181651
0.142706
0.195852
0.209788
0.179919
0.138908
0.093304
0.051502
0.012340
-0.046354
-0.094721
-0.105700
-0.142451
-0.134808
-0.104569
-0.038248
-0.008587
0.022411
0.059468
0.105215
0.143314
0.165462
0.184938
0.169248
0.147167
0.117964
0.075271
0.027201
-0.020442
-0.065603
-0.096681
-0.126446
-0.145859
-0.143125
-0.104091
-0.063826
-0.022252
0.013481
0.061872
0.107367
0.147087
0.159695
0.189579
0.173805
0.143301
0.108282
0.063266
0.001334
-0.032025
-0.049666
-0.095675
-0.146577
-0.128391
-0.117471
-0.101929
-0.061920
-0.033963
0.006268
0.083004
0.132014
0.161449
0.166313
0.175535
0.200027
0.195917
0.154831
0.077100
0.028816
-0.014613
-0.054157
-0.092091
-0.123501
-0.148449
-0.131743
-0.085956
-0.055796
-0.023113
0.007224
0.036917
0.105091
0.156615
0.165387
0.226142
0.192716
0.165289
0.151306
0.089389
0.054310
0.004607
-0.058039
-0.098478
-0.133402
-0.151920
-0.102108
-0.077731
-0.063845
-0.008611
0.034988
0.070307
0.108854
0.140827
0.165678
0.174032
0.179529
0.164082
0.131816
0.077501
0.008529
-0.026669
-0.051804
-0.101300
-0.131083
-0.142151
-0.131082
-0.113497
-0.073957
-0.035784
0.019455
0.067319
0.114482
0.153591
0.177317
0.193887
0.176311
0.153140
0.117700
0.059880
0.014952
-0.030125
-0.064916
-0.105556
-0.127327
-0.143831
-0.139008
-0.116643
-0.079980
-0.032839
0.012538
0.062733
0.109785
0.142248
0.161129
0.168623
0.161357
0.143867
0.112192
0.071222
0.026048
-0.015439
-0.076741
-0.125529
-0.122887
-0.127834
-0.116747
-0.111075
-0.108348
-0.045736
-0.009637
0.033634
0.114541
0.180940
0.199216
0.204648
0.164252
0.114509
0.084524
0.032485
-0.038268
-0.066844
-0.116365
-0.091907
-0.110250
-0.155399
-0.113941
-0.093705
-0.055870
-0.031819
0.019031
0.054439
0.094002
0.130998
0.135046
0.140472
0.136716
0.127133
0.092099
0.043033
0.004484
-0.036051
-0.083005
-0.124381
-0.153374
-0.173436
-0.184624
-0.152043
-0.099722
-0.043404
0.000524
0.030578
0.071621
0.106995
0.180548
0.209598
0.209350
0.160794
0.105326
0.046315
-0.001759
-0.030119
-0.070397
-0.094991
-0.094262
-0.122299
-0.140903
-0.107373
-0.057645
-0.022665
0.026111
0.076894
0.111251
0.144712
0.165630
0.194823
0.184863
0.151264
0.123963
0.072552
0.028867
-0.029003
-0.054582
-0.095734
-0.103497
-0.096392
-0.101950
-0.110312
-0.074323
-0.026411
0.006490
0.061642
0.096264
0.128733
0.166424
0.194139
0.202080
0.184208
0.149140
0.100026
0.044296
-0.002027
-0.024189
-0.060573
-0.088387
-0.106608
-0.101927
-0.069636
-0.037266
-0.000701
0.050501
0.089142
0.144250
0.184909
0.179815
0.185726
0.178251
0.150089
0.118806
0.068560
0.003386
-0.038472
-0.083818
-0.100599
-0.125130
-0.151564
-0.145898
-0.116581
-0.083047
-0.039293
-0.023112
0.022914
0.059749
0.121469
0.204433
0.192981
0.166075
0.136918
0.077202
0.005561
-0.057701
-0.091264
-0.103834
-0.125018
-0.146425
-0.151071
-0.156945
-0.140527
-0.113676
-0.081976
-0.036120
0.013444
0.024531
0.093513
0.119708
0.124929
0.109769
0.098938
0.073524
0.017283
-0.026272
-0.083859
-0.138726
-0.177498
-0.203852
-0.207958
-0.185088
-0.181790
-0.139942
-0.064382
0.004802
0.041643
0.061589
0.085668
0.105707
0.108559
0.108382
0.077204
0.055887
0.018116
-0.019407
-0.072216
-0.117384
-0.163900
-0.185873
-0.195534
-0.198551
-0.155006
-0.098436
-0.067461
-0.038683
0.006797
0.040639
0.080120
0.092584
0.118628
0.120355
0.082562
0.045141
0.008208
-0.032277
-0.074787
-0.112995
-0.148911
-0.174725
-0.174218
-0.170824
-0.157809
-0.134436
-0.101438
-0.043467
-0.005112
0.011489
0.056452
0.070954
0.098045
0.113664
0.124119
0.120510
0.088774
0.057991
-0.003550
-0.030629
-0.033146
-0.042259
-0.033342
-0.035146
-0.022905
0.025943
0.100420
0.172434
0.230813
0.318362
0.377450
0.410174
0.444969
0.474533
0.474699
0.481691
0.466621
0.447059
0.429243
0.419620
0.434776
0.451012
0.467509
0.504781
0.548914
0.616014
0.672031
0.727779
0.788491
0.821912
0.844925
0.850072
0.817088
0.797536
0.740109
0.632823
0.526960
0.404539
0.305120
0.225819
0.157848
0.087582
0.028019
-0.001589
0.005926
0.011803
0.043132
0.080505
0.140075
0.178895
0.183331
0.198561
0.200986
0.189896
0.213706
0.167352
0.122580
0.074813
0.009193
-0.044584
-0.056641
-0.100233
-0.123406
-0.121672
-0.096779
-0.099620
-0.035956
0.029843
0.062693
0.098673
0.124073
0.133464
0.135513
0.135346
0.117800
0.082211
0.061482
0.033834
-0.037106
-0.113182
-0.134336
-0.139912
-0.145463
-0.117929
-0.118423
-0.101641
-0.053207
-0.012707
0.038790
0.083063
0.110282
0.111121
0.116360
0.136100
0.132438
0.114580
0.070848
0.009916
-0.025511
-0.063625
-0.115362
-0.149036
-0.171620
-0.137010
-0.100037
-0.071015
-0.025544
-0.001605
0.046129
0.090965
0.129168
0.145666
0.153203
0.148955
0.130616
0.104656
0.088104
0.035026
-0.030342
-0.082311
-0.121971
-0.145313
-0.148310
-0.156619
-0.119761
-0.079874
-0.024203
0.035005
0.077931
0.101258
0.149429
0.159612
0.169378
0.178923
0.168384
0.127603
0.099204
0.058129
0.000359
-0.070627
-0.133351
-0.175088
-0.097735
-0.098480
-0.073350
-0.029650
0.009880
0.054560
0.095437
0.122847
0.168410
0.194140
0.199071
0.210439
0.179282
0.145221
0.090426
0.052164
0.010931
-0.020874
-0.038748
-0.074273
-0.073531
-0.069198
-0.051505
-0.029799
0.020204
0.083144
0.130043
0.154906
0.199290
0.222478
0.249949
0.228812
0.198391
0.166421
0.147309
0.120669
0.065344
0.007242
-0.020839
-0.028401
-0.054378
-0.074920
-0.058592
0.035159
0.084452
0.106336
0.154338
0.200231
0.247349
0.270481
0.259786
0.238903
0.221249
0.203219
0.162642
0.109765
0.066001
0.026580
-0.010288
-0.016849
-0.045900
-0.054806
-0.030384
0.000788
0.038300
0.109041
0.159179
0.207558
0.247742
0.261832
0.260455
0.256073
0.237173
0.198694
0.153888
0.101157
0.050427
0.018394
-0.025443
-0.043258
-0.048093
-0.039722
-0.029172
-0.010180
0.011708
0.042397
0.083982
0.147512
0.207683
0.244348
0.256513
0.230916
0.197664
0.156924
0.128432
0.088876
0.043966
0.026344
-0.044604
-0.078350
-0.091006
-0.078559
-0.055620
-0.018084
0.024689
0.069015
0.126895
0.157230
0.170243
0.170072
0.187096
0.182826
0.175335
0.127068
0.070937
0.042265
-0.003819
-0.045368
-0.086511
-0.116819
-0.152388
-0.148414
-0.094753
-0.048730
-0.019656
0.016009
0.080820
0.114782
0.176934
0.164117
0.146431
0.160693
0.157953
0.115437
0.065071
0.025249
-0.025160
-0.087986
-0.137278
-0.165372
-0.151794
-0.165855
-0.144720
-0.092270
-0.032741
0.004567
0.041912
0.076078
0.099269
0.115842
0.118502
0.156857
0.150487
0.120180
0.090169
0.032270
-0.039809
-0.110208
-0.133457
-0.144787
-0.150555
-0.148984
-0.146102
-0.113475
-0.057128
-0.012680
0.028474
0.066376
0.105188
0.151065
0.154413
0.153814
0.127728
0.090834
0.041291
-0.004125
-0.044574
-0.086604
-0.132776
-0.162834
-0.122498
-0.145995
-0.155111
-0.130720
-0.058444
-0.009209
0.044401
0.068304
0.089548
0.169553
0.159865
0.161803
0.137781
0.089976
0.056423
0.044576
-0.023057
-0.078822
-0.097102
-0.099163
-0.110135
-0.124944
-0.113488
-0.079162
-0.031142
0.020612
0.055694
0.073883
0.108926
0.140283
0.168148
0.172268
0.139653
0.101883
0.060770
0.010782
-0.045817
-0.066082
-0.109890
-0.137498
-0.152057
-0.145322
-0.150997
-0.083276
-0.028815
0.017925
0.040688
0.069634
0.107713
0.140331
0.152369
0.152859
0.151121
0.136539
0.078758
-0.014864
-0.040289
-0.082999
-0.120139
-0.125020
-0.116634
-0.116053
-0.111374
-0.080051
-0.032132
0.014834
0.046041
0.078538
0.114849
0.131381
0.138527
0.142089
0.115632
0.085136
0.066622
0.009905
-0.051507
-0.083645
-0.125368
-0.157465
-0.159335
-0.167058
-0.119698
-0.092670
-0.049821
0.011412
0.060087
0.091757
0.132813
0.151128
0.135792
0.127192
0.110517
0.088969
0.031098
-0.036137
-0.080604
-0.112924
-0.133426
-0.127687
-0.146406
-0.165729
-0.146452
-0.065975
-0.025786
-0.004101
0.044670
0.117064
0.118003
0.129088
0.157073
0.169295
0.142282
0.100955
0.044009
-0.014661
-0.059998
-0.113319
-0.141597
-0.149435
-0.152245
-0.144862
-0.142079
-0.111090
-0.077228
-0.032863
0.030744
0.068997
0.100757
0.125270
0.133690
0.132444
0.104892
0.087404
0.035971
-0.012838
-0.050152
-0.091212
-0.145187
-0.160899
-0.168407
-0.160831
-0.141383
-0.109008
-0.051904
-0.015723
0.035344
0.067616
0.106610
0.127198
0.141083
0.131711
0.114223
0.084056
0.072355
0.028575
-0.011540
-0.069195
-0.123449
-0.157712
-0.145456
-0.123809
-0.091943
-0.085458
-0.044774
0.008792
0.053187
0.097316
0.120781
0.147198
0.168539
0.183656
0.150296
0.107167
0.064587
0.028954
-0.037518
-0.074916
-0.089880
-0.111423
-0.132577
-0.134492
-0.100175
-0.077513
-0.036767
0.033154
0.058832
0.073372
0.126365
0.192169
0.189893
0.192177
0.190147
0.149210
0.100899
0.035357
-0.035008
-0.056466
-0.087061
-0.137953
-0.153331
-0.124416
-0.084375
-0.043611
-0.010700
0.035279
0.079067
0.106579
0.130557
0.148454
0.149864
0.150235
0.127426
0.103550
0.065302
0.022004
-0.040422
-0.092770
-0.130408
-0.151580
-0.160876
-0.173467
-0.153985
-0.131000
-0.095600
-0.027283
0.047099
0.130679
0.134554
0.152788
0.130057
0.127028
0.109648
0.076766
0.014229
-0.048058
-0.092811
-0.125375
-0.141046
-0.169617
-0.177809
-0.183656
-0.172292
-0.131531
-0.085948
-0.046753
-0.009871
0.030709
0.064726
0.077418
0.087024
0.077257
0.093066
0.074598
0.028729
-0.025051
-0.069657
-0.120693
-0.163271
-0.198515
-0.196370
-0.223376
-0.193533
-0.133624
-0.107495
-0.083855
-0.035714
0.037355
0.065689
0.107226
0.106244
0.109128
0.059309
0.070522
0.049238
-0.017660
-0.081981
-0.143337
-0.163266
-0.189240
-0.197637
-0.208449
-0.201009
-0.148380
-0.067256
-0.031343
-0.000275
0.037878
0.068548
0.078578
0.080755
0.078170
0.064385
0.052588
0.003290
-0.050594
-0.082547
-0.126218
-0.175806
-0.206560
-0.228274
-0.220041
-0.169578
-0.147855
-0.092256
-0.071173
-0.037865
0.008955
0.062842
0.132848
0.161056
0.171278
0.151513
0.122963
0.075769
0.055876
0.043653
0.059217
0.031450
-0.022967
-0.035680
-0.009643
0.040707
0.109924
0.160237
0.245912
0.323933
0.394834
0.472953
0.529713
0.562179
0.604604
0.606382
0.594139
0.590676
0.571829
0.577143
0.589765
0.618171
0.598466
0.591629
0.595235
0.612848
0.650883
0.661804
0.687956
0.736068
0.750360
0.766604
0.725628
0.654059
0.582123
0.493529
0.407211
0.320329
0.251644
0.151389
0.058732
0.001246
-0.025455
-0.024960
-0.014794
-0.006839
0.020855
0.039085
0.077065
0.117120
0.134749
0.161966
0.192710
0.207673
0.184211
0.170257
0.113904
0.069390
0.021945
-0.019827
-0.048133
-0.085756
-0.123714
-0.159999
-0.170039
-0.118431
-0.097679
-0.049380
0.011572
0.059879
0.084340
0.109341
0.141724
0.152139
0.143547
0.129036
0.090495
0.032934
-0.025521
-0.052912
-0.091581
-0.130481
-0.154313
-0.168476
-0.177839
-0.162359
-0.135345
-0.066411
-0.003028
0.052321
0.080856
0.098949
0.125095
0.132126
0.134705
0.111445
0.072208
0.031356
-0.022147
-0.038089
-0.069061
-0.120444
-0.156721
-0.164048
-0.173698
-0.167681
-0.145995
-0.101484
0.012609
0.104284
0.116095
0.145351
0.184975
0.185096
0.149069
0.112438
0.095786
0.062717
0.006719
-0.037804
-0.079813
-0.133707
-0.145408
-0.140500
-0.146616
-0.123709
-0.086777
-0.041157
0.017300
0.052332
0.101860
0.144915
0.174392
0.167607
0.157278
0.134755
0.111289
0.073055
0.009059
-0.038886
-0.051872
-0.097228
-0.125894
-0.130915
-0.110054
-0.101456
-0.075903
-0.040880
0.021548
0.078864
0.135844
0.170252
0.184473
0.180959
0.173511
0.163486
0.141899
0.112942
0.072222
0.024851
-0.018312
-0.049838
-0.082674
-0.088279
-0.077171
-0.048488
-0.023726
0.016099
0.064648
0.108506
0.140188
0.188316
0.211189
0.215122
0.216151
0.190437
0.150478
0.124644
0.102860
0.064748
0.029430
-0.006996
-0.041438
-0.045255
-0.052875
-0.034477
-0.005469
0.045390
0.086973
0.142071
0.185363
0.216379
0.261148
0.293061
0.273797
0.256936
0.210677
0.161078
0.100380
0.038121
-0.022017
-0.006420
-0.018497
-0.031426
-0.040547
-0.040305
-0.004728
0.046887
0.094261
0.144993
0.181070
0.211760
0.232152
0.230039
0.230142
0.217605
0.176611
0.127070
0.087309
0.033358
0.008964
-0.031105
-0.047056
-0.069765
-0.085660
-0.036059
-0.011138
-0.005990
0.068212
0.128107
0.151697
0.171170
0.208733
0.228648
0.219373
0.190275
0.147239
0.103557
0.050236
0.000493
-0.036922
-0.068189
-0.098446
-0.114153
-0.101851
-0.094667
-0.060084
-0.004923
0.043798
0.084450
0.105446
0.133278
0.141995
0.165591
0.193794
0.163415
0.114097
0.068897
0.030498
-0.018959
-0.062785
-0.116851
-0.156325
-0.150252
-0.141839
-0.100280
-0.069323
-0.016367
0.032131
0.056783
0.079620
0.114985
0.153063
0.147395
0.134306
0.098703
0.077024
0.025433
-0.021326
-0.040072
-0.060649
-0.117283
-0.157757
-0.150901
-0.114896
-0.126729
-0.113386
-0.074965
-0.029274
0.026150
0.048437
0.094662
0.127663
0.132252
0.133272
0.099078
0.064037
0.009237
-0.003096
-0.035660
-0.099808
-0.142612
-0.165763
-0.172025
-0.171637
-0.154390
-0.117103
-0.077438
-0.035020
0.012927
0.060810
0.079435
0.109301
0.140466
0.146035
0.115484
0.066290
0.014769
-0.028327
-0.032019
-0.084761
-0.129730
-0.137767
-0.159719
-0.133112
-0.123250
-0.091573
-0.070055
-0.013952
0.013059
0.075137
0.126435
0.141721
0.147985
0.158409
0.154480
0.116345
0.048129
-0.000096
-0.066995
-0.102057
-0.135157
-0.171820
-0.140311
-0.120172
-0.121458
-0.107999
-0.084196
-0.037150
-0.003449
0.078371
0.145422
0.184080
0.177257
0.161338
0.174371
0.119893
0.064160
0.012846
-0.046753
-0.091162
-0.134596
-0.145997
-0.167644
-0.161723
-0.131903
-0.100821
-0.056245
-0.004915
0.051542
0.068317
0.108253
0.149511
0.166694
0.166081
0.131786
0.084836
0.041271
-0.016302
-0.041558
-0.091188
-0.113721
-0.140041
-0.159070
-0.164354
-0.141507
-0.101884
-0.065526
-0.010854
0.027565
0.068426
0.105340
0.137716
0.160288
0.128135
0.110332
0.080550
0.039836
-0.004268
-0.048371
-0.080373
-0.120559
-0.158033
-0.173974
-0.176732
-0.149949
-0.138428
-0.073451
-0.009158
0.053081
0.091921
0.131827
0.138241
0.147618
0.138136
0.116351
0.073662
0.039067
-0.003912
-0.082704
-0.094891
-0.119825
-0.166869
-0.186284
-0.174441
-0.136710
-0.093761
-0.042313
-0.012550
0.060950
0.083587
0.087797
0.105520
0.132815
0.139752
0.106738
0.095859
0.048576
-0.003805
-0.035958
-0.057110
-0.110324
-0.159097
-0.170778
-0.163175
-0.137769
-0.120585
-0.077950
-0.023545
0.008251
0.054587
0.087710
0.113492
0.092522
0.111425
0.098644
0.078064
0.046763
0.001972
-0.047870
-0.090038
-0.142344
-0.179521
-0.175874
-0.173956
-0.160679
-0.126316
-0.087285
-0.037120
0.015551
0.056340
0.088078
0.116826
0.115050
0.110827
0.094407
0.049292
-0.002336
-0.012013
-0.064196
-0.129855
-0.124546
-0.140020
-0.165792
-0.161296
-0.150015
-0.095815
-0.052208
-0.004858
0.044623
0.079309
0.109575
0.134729
0.151813
0.144973
0.137306
0.101419
0.062714
0.013077
-0.033216
-0.089903
-0.121139
-0.139374
-0.148494
-0.154905
-0.138359
-0.100772
-0.020922
0.007746
0.001190
0.094858
0.129020
0.133032
0.164037
0.155157
0.146421
0.127384
0.113255
0.083410
0.010489
-0.057612
-0.096284
-0.123815
-0.123037
-0.128785
-0.117830
-0.080031
-0.024220
0.028065
0.058090
0.084450
0.120066
0.147249
0.144756
0.148148
0.142548
0.123552
0.083743
0.053929
0.003965
-0.062554
-0.092174
-0.115209
-0.141791
-0.148861
-0.170444
-0.097764
-0.017907
0.009904
0.028755
0.069389
0.093833
0.107889
0.137315
0.134798
0.100079
0.078791
0.028085
-0.030592
-0.088493
-0.148004
-0.131846
-0.166176
-0.172603
-0.174883
-0.153613
-0.125982
-0.079502
-0.045599
0.007598
0.050170
0.073641
0.093328
0.110062
0.097226
0.060079
0.045080
0.012830
-0.024957
-0.099540
-0.146428
-0.165432
-0.191778
-0.204208
-0.213333
-0.198552
-0.142129
-0.098703
-0.066955
-0.046769
-0.010109
0.008137
0.087046
0.151147
0.149553
0.101162
0.032344
0.010789
0.029733
-0.040992
-0.108879
-0.161484
-0.212692
-0.219772
-0.207935
-0.190032
-0.158465
-0.112145
-0.060837
-0.012532
0.030269
0.061929
0.069051
0.090365
0.094496
0.069217
0.025725
-0.005670
-0.015434
-0.066424
-0.124313
-0.183866
-0.196837
-0.196244
-0.199783
-0.198309
-0.163591
-0.121641
-0.058214
0.027282
0.080053
0.072659
0.078127
0.091123
0.086013
0.082936
0.039086
-0.017022
-0.069046
-0.114895
-0.150241
-0.172127
-0.190849
-0.197345
-0.202163
-0.171071
-0.101928
-0.051128
-0.005411
0.036118
0.114081
0.159600
0.187386
0.243320
0.315221
0.279293
0.231253
0.191810
0.157049
0.126361
0.120197
0.139150
0.167699
0.181842
0.209321
0.254259
0.314716
0.384570
0.462533
0.593461
0.708372
0.794963
0.824294
0.835044
0.854430
0.877641
0.877494
0.837430
0.792248
0.733247
0.675271
0.600354
0.562535
0.531631
0.511348
0.469629
0.429333
0.392834
0.381348
0.375568
0.365344
0.348959
0.328360
0.309361
0.301452
0.285755
0.239955
0.195695
0.132941
0.071426
0.016077
-0.028890
-0.077651
-0.104451
-0.091247
-0.066715
-0.053518
-0.012742
0.035856
0.089766
0.119330
0.132889
0.165940
0.167426
0.162616
0.131773
0.099253
0.057977
0.011045
-0.047872
-0.093431
-0.127607
-0.143465
-0.154961
-0.133929
-0.110972
-0.095489
-0.062298
-0.022684
0.032780
0.076523
0.107833
0.117077
0.127815
0.129220
0.116460
0.084767
0.029435
-0.020924
-0.067714
-0.109100
-0.138168
-0.156208
-0.164747
-0.150040
-0.133266
-0.121657
-0.099695
-0.045065
0.008907
0.063003
0.104474
0.139297
0.149447
0.138239
0.127525
0.091079
0.042608
-0.004630
-0.071812
-0.099087
-0.099152
-0.118703
-0.135528
-0.133284
-0.132435
-0.112862
-0.085087
-0.021034
0.039498
0.075911
0.119217
0.171802
0.159349
0.144233
0.131670
0.080339
0.033872
-0.014195
-0.059325
-0.075238
-0.093295
-0.119574
-0.116809
-0.096387
-0.089721
-0.066793
-0.042971
0.029758
0.088996
0.109714
0.124672
0.159885
0.173419
0.165397
0.147930
0.115864
0.075389
0.045090
0.001215
-0.054736
-0.075236
-0.077874
-0.088122
-0.082759
-0.093585
-0.044162
0.017518
0.057962
0.094383
0.126195
0.199261
0.193570
0.211252
0.203985
0.192185
0.169955
0.124833
0.070882
0.023390
-0.015893
-0.033154
-0.063804
-0.068153
-0.053498
-0.055113
-0.027977
0.012336
0.067257
0.129568
0.163135
0.176943
0.206955
0.235150
0.242812
0.225225
0.194637
0.120863
0.119700
0.058010
0.004667
-0.009568
-0.027385
-0.059894
-0.040353
-0.015655
0.016200
0.058537
0.097650
0.155527
0.187630
0.221543
0.236513
0.242738
0.217110
0.243590
0.212776
0.154348
0.103221
0.064398
0.018018
-0.016277
-0.045619
-0.053780
-0.046094
-0.027420
-0.000367
0.044709
0.085038
0.132554
0.177279
0.202815
0.228465
0.243460
0.222185
0.200108
0.167870
0.121096
0.077713
0.032789
-0.011062
-0.033743
-0.055058
-0.056690
-0.045518
-0.036698
-0.020771
-0.013172
0.031472
0.078974
0.134397
0.212381
0.216194
0.201106
0.220061
0.217365
0.225096
0.145260
0.052979
-0.001134
-0.059961
-0.081895
-0.104430
-0.099046
-0.098388
-0.111988
-0.075560
-0.032686
0.004747
0.043087
0.078762
0.128424
0.144495
0.155816
0.161118
0.158122
0.132464
0.085396
0.030518
-0.018108
-0.064196
-0.128863
-0.180936
-0.172247
-0.146653
-0.143774
-0.106883
-0.047677
-0.002227
0.036191
0.089228
0.123626
0.141027
0.147635
0.123348
0.099026
0.054770
0.012462
-0.024304
-0.044075
-0.112271
-0.083023
-0.112446
-0.158887
-0.148869
-0.103635
-0.087635
-0.055219
-0.014625
0.004852
0.071847
0.129266
0.150338
0.145751
0.130180
0.113233
0.083150
0.041762
-0.007147
-0.052427
-0.110034
-0.136994
-0.152320
-0.164671
-0.155024
-0.135550
-0.111256
-0.069905
-0.012964
0.031439
0.063172
0.096393
0.109681
0.131121
0.135851
0.123773
0.087317
0.048595
0.013170
-0.040905
-0.086925
-0.121277
-0.136591
-0.160145
-0.145726
-0.124114
-0.089149
-0.058782
-0.011393
0.042028
0.106387
0.142013
0.148080
0.138537
0.123440
0.118182
0.107662
0.057027
-0.020070
-0.055471
-0.060822
-0.069688
-0.126668
-0.157539
-0.157160
-0.112235
-0.071574
-0.045435
-0.010293
0.026768
0.070768
0.111020
0.140487
0.143797
0.151032
0.129826
0.118309
0.072649
0.020701
-0.056529
-0.071818
-0.109649
-0.148163
-0.165193
-0.167223
-0.123670
-0.064885
-0.022715
-0.015413
0.020326
0.082800
0.120250
0.143299
0.152270
0.142420
0.137732
0.096408
0.058438
0.008997
-0.045958
-0.090950
-0.121041
-0.139655
-0.135237
-0.152221
-0.126138
-0.099141
-0.070863
-0.028358
0.047629
0.113671
0.108525
0.113157
0.142488
0.163632
0.141013
0.107229
0.083257
0.023877
-0.025796
-0.089076
-0.135895
-0.138270
-0.140443
-0.137086
-0.127233
-0.101542
-0.061379
-0.026527
0.008582
0.062052
0.099282
0.125382
0.159841
0.140127
0.108095
0.078739
0.044971
-0.012717
-0.064100
-0.107764
-0.161024
-0.178128
-0.192581
-0.184962
-0.162943
-0.129856
-0.065344
-0.020204
0.050770
0.080138
0.156875
0.226544
0.196919
0.158240
0.095720
0.054211
0.036952
0.004560
-0.050068
-0.108708
-0.147594
-0.175102
-0.178354
-0.166226
-0.145080
-0.125055
-0.084768
-0.020248
0.042724
0.079947
0.098129
0.106346
0.115343
0.123107
0.102096
0.072480
0.029688
-0.015318
-0.050409
-0.093273
-0.137733
-0.160613
-0.175193
-0.162062
-0.146195
-0.112428
-0.054220
-0.029411
-0.024332
0.044937
0.096364
0.122498
0.144520
0.136139
0.129133
0.093340
0.031534
-0.015323
-0.065701
-0.099497
-0.148316
-0.172667
-0.160986
-0.160030
-0.149602
-0.116305
-0.084626
-0.033695
0.015279
0.060912
0.085882
0.111737
0.118438
0.124296
0.107192
0.077154
0.040498
0.005386
-0.030488
-0.088004
-0.122203
-0.142000
-0.152273
-0.157407
-0.142682
-0.099892
-0.028611
0.024358
0.041976
0.064848
0.115735
0.113952
0.116860
0.118827
0.108816
0.145825
0.149547
0.050218
-0.042703
-0.094366
-0.070002
-0.105850
-0.153714
-0.148852
-0.128860
-0.091815
-0.048522
-0.001519
0.057593
0.090390
0.122928
0.146766
0.190521
0.177899
0.164249
0.127923
0.086923
0.039741
-0.006905
-0.045949
-0.071218
-0.102822
-0.130931
-0.109992
-0.082254
-0.062099
-0.020653
0.027487
0.084626
0.092592
0.124467
0.110688
0.110207
0.129241
0.124939
0.110102
0.063626
0.000446
-0.045717
-0.085339
-0.115793
-0.130871
-0.144270
-0.154086
-0.135564
-0.077790
-0.052727
-0.012371
0.023615
0.072010
0.112252
0.123104
0.138596
0.123964
0.070355
0.038972
0.005926
-0.037251
-0.083400
-0.123286
-0.144810
-0.166046
-0.183170
-0.183630
-0.155699
-0.123438
-0.100053
-0.062747
-0.022653
0.031356
0.084646
0.099425
0.112721
0.111659
0.075930
0.039161
-0.001481
-0.036853
-0.090107
-0.131169
-0.163752
-0.188264
-0.205125
-0.191645
-0.178926
-0.154249
-0.125445
-0.083559
-0.026302
0.017382
0.066880
0.147878
0.156445
0.112799
0.080156
0.042183
-0.001173
-0.042863
-0.105399
-0.151381
-0.181369
-0.200607
-0.204231
-0.205421
-0.135151
-0.133193
-0.106077
-0.055453
-0.014172
0.023852
0.056064
0.084334
0.118163
0.114372
0.098434
0.073379
0.007118
-0.060847
-0.100315
-0.158212
-0.151058
-0.177968
-0.215891
-0.231329
-0.188898
-0.126393
-0.031900
0.006672
0.040898
0.032083
